XYDATA SparksLave Co3O4-quenched_750_1.5K 
INTER        1       1       0     0.100000
TEMP       1.41930      1.65230      1.50000
! d1b Date 15-Nov-11 Time 22:29:12 Run 130082 130071>130082
! d1b Date 15-Nov-11 Time 22:29:12 Run 130082 130071>130082
! Monitor/counts, Counting time/sec:  1.09617e+007 1.09617e+007
   0.7900             8.000       1.000
   0.8900             5.000       1.000
   0.9900          1707.000      11.662
   1.0900          1698.000      11.225
   1.1900          1725.000      12.450
   1.2900          1615.000      10.198
   1.3900          1742.000      11.874
   1.4900          1807.000      12.530
   1.5900          1871.000      12.450
   1.6900          1854.000      11.619
   1.7900          2396.000      14.866
   1.8900          3776.000      17.436
   1.9900          6391.000      22.869
   2.0900          8772.000      26.344
   2.1900         10814.000      29.189
   2.2900         13890.000      33.526
   2.3900         17499.000      38.704
   2.4900         21278.000      42.154
   2.5900         25200.000      45.552
   2.6900         28864.000      48.384
   2.7900         31971.000      51.293
   2.8900         34682.000      53.638
   2.9900         37455.000      56.347
   3.0900         40183.000      58.138
   3.1900         42767.000      60.025
   3.2900         44336.000      60.787
   3.3900         44852.000      61.245
   3.4900         44413.000      60.374
   3.5900         43838.000      60.208
   3.6900         43772.000      58.805
   3.7900         43106.000      59.363
   3.8900         41910.000      58.310
   3.9900         42305.000      58.907
   4.0900         42284.000      59.506
   4.1900         42026.000      59.279
   4.2900         42379.000      59.641
   4.3900         42591.000      59.666
   4.4900         43441.000      60.100
   4.5900         44698.000      59.615
   4.6900         45970.000      61.205
   4.7900         46624.000      61.806
   4.8900         48128.000      63.008
   4.9900         49298.000      63.906
   5.0900         50703.000      65.689
   5.1900         51459.000      65.727
   5.2900         52901.000      65.719
   5.3900         53749.000      67.179
   5.4900         55193.000      68.264
   5.5900         56775.000      69.289
   5.6900         57326.000      68.059
   5.7900         58056.000      68.578
   5.8900         59902.000      70.470
   5.9900         60704.000      71.239
   6.0900         61341.000      72.636
   6.1900         61579.000      72.056
   6.2900         61353.000      70.803
   6.3900         61047.000      71.365
   6.4900         61189.000      71.603
   6.5900         60691.000      70.675
   6.6900         60298.000      71.764
   6.7900         59960.000      70.314
   6.8900         59619.000      70.278
   6.9900         58762.000      69.663
   7.0900         58370.000      70.071
   7.1900         57367.000      68.782
   7.2900         57432.000      69.800
   7.3900         56730.000      68.608
   7.4900         55903.000      68.717
   7.5900         55169.000      68.125
   7.6900         54297.000      67.067
   7.7900         53193.000      66.348
   7.8900         52638.000      65.567
   7.9900         51872.000      66.015
   8.0900         51009.000      65.008
   8.1900         50423.000      65.552
   8.2900         49650.000      64.792
   8.3900         48643.000      63.984
   8.4900         48291.000      64.195
   8.5900         46874.000      63.380
   8.6900         46639.000      62.522
   8.7900         45799.000      61.498
   8.8900         44577.000      61.303
   8.9900         43803.000      59.917
   9.0900         43294.000      59.950
   9.1900         42583.000      60.033
   9.2900         41518.000      58.643
   9.3900         40788.000      57.888
   9.4900         39950.000      58.284
   9.5900         39224.000      57.000
   9.6900         38130.000      56.763
   9.7900         37844.000      56.098
   9.8900         36767.000      55.606
   9.9900         35580.000      53.926
  10.0900         35234.000      53.991
  10.1900         34238.000      53.870
  10.2900         33816.000      53.104
  10.3900         32972.000      51.846
  10.4900         32308.000      52.000
  10.5900         31665.000      51.536
  10.6900         31322.000      50.725
  10.7900         31036.000      50.695
  10.8900         30611.000      50.902
  10.9900         29923.000      49.598
  11.0900         30081.000      50.150
  11.1900         29864.000      49.910
  11.2900         29574.000      49.528
  11.3900         29300.000      49.163
  11.4900         29698.000      49.578
  11.5900         29688.000      49.173
  11.6900         29759.000      50.507
  11.7900         29586.000      49.315
  11.8900         30052.000      50.020
  11.9900         29604.000      50.190
  12.0900         29590.000      49.315
  12.1900         29671.000      49.790
  12.2900         29397.000      50.398
  12.3900         29324.000      49.376
  12.4900         29355.000      49.508
  12.5900         29500.000      49.396
  12.6900         29506.000      50.636
  12.7900         29656.000      49.598
  12.8900         29527.000      49.820
  12.9900         29604.000      49.649
  13.0900         29396.000      49.487
  13.1900         29781.000      50.931
  13.2900         29424.000      49.143
  13.3900         29527.000      49.598
  13.4900         29179.000      49.659
  13.5900         29496.000      48.672
  13.6900         29702.000      49.890
  13.7900         29289.000      49.376
  13.8900         29437.000      50.000
  13.9900         29575.000      49.447
  14.0900         29391.000      49.880
  14.1900         29565.000      49.132
  14.2900         29363.000      49.010
  14.3900         29623.000      49.325
  14.4900         29260.000      49.518
  14.5900         29494.000      49.548
  14.6900         29563.000      49.244
  14.7900         29324.000      49.386
  14.8900         29170.000      49.699
  14.9900         29527.000      48.652
  15.0900         29489.000      49.800
  15.1900         29948.000      49.820
  15.2900         30475.000      49.619
  15.3900         31651.000      50.823
  15.4900         31787.000      50.030
  15.5900         31124.000      50.804
  15.6900         30143.000      49.970
  15.7900         29496.000      49.860
  15.8900         29388.000      49.183
  15.9900         29506.000      49.548
  16.0900         29596.000      50.110
  16.1900         29597.000      49.163
  16.2900         29480.000      49.639
  16.3900         29793.000      50.329
  16.4900         29363.000      49.275
  16.5900         29432.000      49.719
  16.6900         29486.000      49.041
  16.7900         29236.000      49.244
  16.8900         29471.000      48.229
  16.9900         29522.000      49.649
  17.0900         29526.000      49.346
  17.1900         29435.000      48.847
  17.2900         29293.000      49.010
  17.3900         29494.000      49.769
  17.4900         29865.000      49.840
  17.5900         29523.000      48.229
  17.6900         29930.000      48.980
  17.7900         30534.000      50.190
  17.8900         30975.000      51.029
  17.9900         30722.000      50.210
  18.0900         30628.000      50.379
  18.1900         30094.000      49.538
  18.2900         29565.000      49.558
  18.3900         29689.000      49.800
  18.4900         30120.000      49.790
  18.5900         29637.000      50.180
  18.6900         29750.000      49.325
  18.7900         29682.000      49.810
  18.8900         30073.000      50.010
  18.9900         29926.000      49.538
  19.0900         29812.000      50.160
  19.1900         29872.000      49.548
  19.2900         29741.000      49.729
  19.3900         29535.000      49.406
  19.4900         29939.000      49.437
  19.5900         29413.000      49.020
  19.6900         29826.000      49.467
  19.7900         29863.000      50.170
  19.8900         29908.000      49.427
  19.9900         29665.000      50.220
  20.0900         30067.000      49.325
  20.1900         29703.000      50.388
  20.2900         29502.000      49.366
  20.3900         29896.000      49.447
  20.4900         29919.000      50.428
  20.5900         30405.000      50.498
  20.6900         30420.000      49.548
  20.7900         30433.000      50.050
  20.8900         30172.000      49.315
  20.9900         30327.000      50.398
  21.0900         29869.000      49.810
  21.1900         29882.000      50.329
  21.2900         29989.000      49.860
  21.3900         29986.000      50.537
  21.4900         30242.000      49.699
  21.5900         30144.000      49.820
  21.6900         30162.000      50.299
  21.7900         29943.000      50.359
  21.8900         30007.000      50.220
  21.9900         30213.000      49.102
  22.0900         30078.000      49.830
  22.1900         30215.000      49.749
  22.2900         30156.000      49.739
  22.3900         29899.000      50.229
  22.4900         29907.000      50.379
  22.5900         30254.000      49.890
  22.6900         29958.000      50.150
  22.7900         30358.000      51.166
  22.8900         30103.000      49.769
  22.9900         30219.000      49.497
  23.0900         30051.000      49.709
  23.1900         30304.000      50.259
  23.2900         29945.000      49.396
  23.3900         30286.000      50.329
  23.4900         30507.000      49.528
  23.5900         30353.000      49.619
  23.6900         30468.000      50.951
  23.7900         30324.000      50.675
  23.8900         30853.000      49.669
  23.9900         30658.000      50.130
  24.0900         30476.000      50.646
  24.1900         30424.000      50.379
  24.2900         30188.000      49.538
  24.3900         30182.000      49.699
  24.4900         30179.000      50.725
  24.5900         30450.000      50.259
  24.6900         30051.000      49.619
  24.7900         30486.000      49.749
  24.8900         30560.000      49.568
  24.9900         30412.000      50.150
  25.0900         30783.000      50.577
  25.1900         30518.000      50.239
  25.2900         30555.000      49.920
  25.3900         30714.000      49.265
  25.4900         31196.000      50.289
  25.5900         30784.000      49.619
  25.6900         30835.000      50.448
  25.7900         30539.000      50.774
  25.8900         30396.000      49.840
  25.9900         30615.000      50.922
  26.0900         30387.000      49.649
  26.1900         30574.000      50.160
  26.2900         30679.000      50.080
  26.3900         30348.000      49.860
  26.4900         30965.000      50.675
  26.5900         30679.000      49.608
  26.6900         30652.000      50.458
  26.7900         30752.000      50.140
  26.8900         30541.000      50.951
  26.9900         30993.000      49.980
  27.0900         30753.000      50.656
  27.1900         30473.000      50.100
  27.2900         30820.000      51.215
  27.3900         30831.000      49.820
  27.4900         30744.000      51.807
  27.5900         30970.000      51.371
  27.6900         30833.000      50.120
  27.7900         30914.000      51.098
  27.8900         31009.000      49.960
  27.9900         31064.000      50.279
  28.0900         30695.000      50.922
  28.1900         30968.000      50.813
  28.2900         31084.000      51.069
  28.3900         30774.000      49.840
  28.4900         31201.000      50.418
  28.5900         31182.000      50.438
  28.6900         31093.000      51.672
  28.7900         30933.000      50.478
  28.8900         31012.000      50.408
  28.9900         31041.000      51.010
  29.0900         31032.000      50.279
  29.1900         31497.000      50.160
  29.2900         31266.000      51.000
  29.3900         31113.000      50.892
  29.4900         31365.000      51.420
  29.5900         31220.000      50.675
  29.6900         31702.000      51.410
  29.7900         32010.000      50.735
  29.8900         32759.000      51.788
  29.9900         32979.000      53.526
  30.0900         32928.000      51.740
  30.1900         32126.000      51.196
  30.2900         31964.000      51.527
  30.3900         32113.000      51.971
  30.4900         32528.000      52.288
  30.5900         32542.000      52.839
  30.6900         32979.000      53.479
  30.7900         33714.000      52.877
  30.8900         36371.000      54.351
  30.9900         42593.000      59.766
  31.0900         58886.000      70.534
  31.1900         85155.000      84.333
  31.2900        108860.000      95.687
  31.3900        110791.000      95.885
  31.4900         91428.000      86.741
  31.5900         62826.000      72.139
  31.6900         44282.000      60.992
  31.7900         36341.000      55.127
  31.8900         33912.000      52.688
  31.9900         33045.000      51.865
  32.0900         32388.000      52.240
  32.1900         32267.000      51.595
  32.2900         32036.000      51.672
  32.3900         31790.000      51.971
  32.4900         31748.000      51.624
  32.5900         31746.000      50.843
  32.6900         31623.000      49.990
  32.7900         31470.000      51.371
  32.8900         31603.000      50.140
  32.9900         31461.000      50.695
  33.0900         31600.000      50.666
  33.1900         31712.000      51.817
  33.2900         31140.000      51.186
  33.3900         31299.000      50.507
  33.4900         31392.000      49.568
  33.5900         31289.000      50.823
  33.6900         31528.000      51.430
  33.7900         31525.000      50.941
  33.8900         31487.000      50.971
  33.9900         31561.000      51.614
  34.0900         31748.000      51.536
  34.1900         32276.000      51.595
  34.2900         32449.000      52.173
  34.3900         32094.000      52.134
  34.4900         31973.000      52.326
  34.5900         31637.000      51.303
  34.6900         31725.000      50.863
  34.7900         31638.000      51.633
  34.8900         31207.000      51.439
  34.9900         31395.000      50.458
  35.0900         31642.000      50.990
  35.1900         31325.000      50.695
  35.2900         31322.000      51.371
  35.3900         31741.000      51.039
  35.4900         32049.000      50.636
  35.5900         32137.000      52.048
  35.6900         32167.000      51.254
  35.7900         32955.000      53.376
  35.8900         34064.000      52.858
  35.9900         37279.000      54.544
  36.0900         44595.000      59.724
  36.1900         57084.000      69.036
  36.2900         69810.000      75.697
  36.3900         73789.000      77.324
  36.4900         66712.000      73.858
  36.5900         53381.000      66.925
  36.6900         41895.000      58.506
  36.7900         35949.000      55.109
  36.8900         33018.000      52.096
  36.9900         32593.000      52.086
  37.0900         32242.000      51.361
  37.1900         31973.000      51.894
  37.2900         31715.000      51.264
  37.3900         31954.000      51.536
  37.4900         31135.000      51.517
  37.5900         31872.000      51.400
  37.6900         31063.000      49.880
  37.7900         31521.000      51.711
  37.8900         31378.000      50.200
  37.9900         31155.000      50.379
  38.0900         31333.000      50.685
  38.1900         30884.000      50.735
  38.2900         31057.000      50.210
  38.3900         31088.000      49.970
  38.4900         30865.000      50.448
  38.5900         30854.000      50.596
  38.6900         30603.000      50.567
  38.7900         31165.000      50.961
  38.8900         31211.000      50.823
  38.9900         31013.000      50.596
  39.0900         30889.000      50.744
  39.1900         30835.000      51.059
  39.2900         30745.000      50.882
  39.3900         31033.000      50.784
  39.4900         31272.000      49.990
  39.5900         31421.000      51.069
  39.6900         31677.000      51.078
  39.7900         31551.000      51.468
  39.8900         31873.000      51.807
  39.9900         31548.000      51.653
  40.0900         31009.000      50.319
  40.1900         31212.000      51.585
  40.2900         31512.000      50.249
  40.3900         31078.000      51.264
  40.4900         30968.000      50.872
  40.5900         31205.000      51.381
  40.6900         30995.000      49.790
  40.7900         31244.000      50.080
  40.8900         31387.000      51.420
  40.9900         30948.000      50.418
  41.0900         30880.000      50.695
  41.1900         31009.000      50.448
  41.2900         30762.000      49.214
  41.3900         31164.000      51.147
  41.4900         30976.000      50.941
  41.5900         30881.000      50.695
  41.6900         30784.000      50.349
  41.7900         31052.000      50.872
  41.8900         30585.000      50.498
  41.9900         30572.000      50.010
  42.0900         30478.000      49.366
  42.1900         30794.000      49.850
  42.2900         30769.000      50.744
  42.3900         30781.000      50.626
  42.4900         30326.000      49.020
  42.5900         30461.000      50.220
  42.6900         30519.000      49.709
  42.7900         30626.000      49.659
  42.8900         30589.000      50.220
  42.9900         30549.000      51.069
  43.0900         30611.000      50.804
  43.1900         30501.000      49.041
  43.2900         30913.000      50.408
  43.3900         30512.000      49.588
  43.4900         30893.000      51.342
  43.5900         31150.000      50.408
  43.6900         30739.000      51.215
  43.7900         30834.000      49.820
  43.8900         30884.000      50.882
  43.9900         30703.000      50.587
  44.0900         30675.000      50.488
  44.1900         30584.000      50.488
  44.2900         30850.000      49.659
  44.3900         30770.000      49.598
  44.4900         30726.000      49.649
  44.5900         30890.000      50.813
  44.6900         31055.000      51.371
  44.7900         30406.000      49.588
  44.8900         30857.000      50.823
  44.9900         30931.000      50.941
  45.0900         31068.000      50.725
  45.1900         30921.000      51.400
  45.2900         30483.000      49.528
  45.3900         30504.000      49.870
  45.4900         30930.000      51.020
  45.5900         30506.000      49.880
  45.6900         30655.000      50.090
  45.7900         30843.000      51.245
  45.8900         30575.000      49.467
  45.9900         30544.000      49.669
  46.0900         30513.000      49.930
  46.1900         30705.000      49.538
  46.2900         30511.000      50.070
  46.3900         30570.000      49.457
  46.4900         30624.000      49.820
  46.5900         30450.000      50.020
  46.6900         30499.000      49.729
  46.7900         30617.000      49.920
  46.8900         30737.000      50.428
  46.9900         30663.000      50.458
  47.0900         31151.000      50.675
  47.1900         30655.000      50.120
  47.2900         30883.000      50.863
  47.3900         30825.000      50.170
  47.4900         30716.000      50.715
  47.5900         31507.000      51.137
  47.6900         32671.000      52.029
  47.7900         34124.000      53.141
  47.8900         34257.000      53.009
  47.9900         33597.000      52.802
  48.0900         32035.000      51.342
  48.1900         31207.000      50.892
  48.2900         31056.000      51.332
  48.3900         30545.000      50.646
  48.4900         30831.000      51.029
  48.5900         30740.000      50.557
  48.6900         30642.000      50.200
  48.7900         30966.000      50.010
  48.8900         30795.000      50.587
  48.9900         30536.000      50.438
  49.0900         30741.000      50.020
  49.1900         30838.000      49.900
  49.2900         31237.000      50.388
  49.3900         30918.000      49.820
  49.4900         30785.000      49.082
  49.5900         31007.000      50.804
  49.6900         30776.000      49.508
  49.7900         30986.000      50.289
  49.8900         30743.000      50.120
  49.9900         30871.000      49.990
  50.0900         30590.000      50.823
  50.1900         30568.000      49.467
  50.2900         31030.000      50.418
  50.3900         30644.000      49.960
  50.4900         30969.000      50.379
  50.5900         31064.000      50.319
  50.6900         30958.000      49.477
  50.7900         30899.000      49.769
  50.8900         30865.000      50.971
  50.9900         30350.000      50.892
  51.0900         30740.000      50.110
  51.1900         30784.000      50.319
  51.2900         30850.000      50.379
  51.3900         30694.000      50.279
  51.4900         30718.000      49.649
  51.5900         30963.000      50.379
  51.6900         31044.000      49.940
  51.7900         31526.000      50.685
  51.8900         32380.000      51.517
  51.9900         34063.000      52.972
  52.0900         36722.000      55.884
  52.1900         41102.000      58.249
  52.2900         47232.000      63.095
  52.3900         50196.000      64.784
  52.4900         48452.000      63.663
  52.5900         44626.000      60.208
  52.6900         39031.000      56.939
  52.7900         34379.000      53.488
  52.8900         32405.000      50.902
  52.9900         31573.000      51.342
  53.0900         31283.000      51.215
  53.1900         31263.000      50.764
  53.2900         31208.000      50.577
  53.3900         30937.000      50.080
  53.4900         30620.000      49.729
  53.5900         30733.000      50.110
  53.6900         30824.000      50.784
  53.7900         30914.000      51.624
  53.8900         30723.000      50.269
  53.9900         30696.000      50.666
  54.0900         31179.000      51.624
  54.1900         30890.000      50.150
  54.2900         30538.000      49.457
  54.3900         30878.000      50.951
  54.4900         30782.000      50.289
  54.5900         30625.000      49.960
  54.6900         30967.000      51.254
  54.7900         30625.000      50.140
  54.8900         31199.000      50.675
  54.9900         31256.000      50.636
  55.0900         31564.000      50.912
  55.1900         31201.000      50.823
  55.2900         31039.000      49.920
  55.3900         31102.000      50.626
  55.4900         30745.000      50.210
  55.5900         30868.000      50.587
  55.6900         31206.000      51.730
  55.7900         31046.000      51.215
  55.8900         31010.000      50.567
  55.9900         31081.000      50.160
  56.0900         30827.000      51.604
  56.1900         30755.000      49.244
  56.2900         31012.000      50.990
  56.3900         30822.000      51.293
  56.4900         31144.000      50.892
  56.5900         31037.000      51.323
  56.6900         30833.000      50.060
  56.7900         30804.000      49.990
  56.8900         30748.000      50.030
  56.9900         30796.000      50.656
  57.0900         30860.000      50.210
  57.1900         30554.000      49.518
  57.2900         31005.000      50.458
  57.3900         30631.000      50.210
  57.4900         30955.000      50.794
  57.5900         30664.000      50.833
  57.6900         30855.000      50.735
  57.7900         31055.000      50.428
  57.8900         30656.000      50.369
  57.9900         30968.000      50.379
  58.0900         30708.000      50.140
  58.1900         31202.000      51.078
  58.2900         30841.000      50.577
  58.3900         31108.000      50.636
  58.4900         30785.000      50.616
  58.5900         30715.000      50.249
  58.6900         30893.000      51.176
  58.7900         31138.000      50.180
  58.8900         31263.000      50.804
  58.9900         30875.000      50.239
  59.0900         30923.000      50.764
  59.1900         31095.000      50.725
  59.2900         30988.000      50.527
  59.3900         31238.000      50.100
  59.4900         31062.000      50.349
  59.5900         30935.000      50.200
  59.6900         31152.000      50.656
  59.7900         31396.000      51.088
  59.8900         30845.000      50.369
  59.9900         31185.000      51.166
  60.0900         30926.000      51.088
  60.1900         30788.000      50.180
  60.2900         30904.000      50.458
  60.3900         31061.000      51.488
  60.4900         31159.000      51.264
  60.5900         31047.000      50.379
  60.6900         30748.000      50.547
  60.7900         31087.000      49.659
  60.8900         31269.000      50.666
  60.9900         31200.000      51.740
  61.0900         31739.000      51.449
  61.1900         31717.000      51.157
  61.2900         31937.000      51.585
  61.3900         31941.000      51.749
  61.4900         32418.000      51.536
  61.5900         32776.000      52.498
  61.6900         34261.000      53.647
  61.7900         36683.000      56.169
  61.8900         40008.000      57.948
  61.9900         44107.000      59.858
  62.0900         48810.000      63.836
  62.1900         55168.000      68.279
  62.2900         59145.000      69.397
  62.3900         59634.000      70.242
  62.4900         57596.000      69.469
  62.5900         52947.000      65.719
  62.6900         48578.000      63.914
  62.7900         41959.000      59.372
  62.8900         37198.000      55.254
  62.9900         34374.000      53.019
  63.0900         32887.000      52.240
  63.1900         32422.000      51.942
  63.2900         32225.000      50.418
  63.3900         31759.000      50.695
  63.4900         31444.000      49.800
  63.5900         31756.000      51.303
  63.6900         31473.000      51.546
  63.7900         31658.000      51.439
  63.8900         31729.000      50.735
  63.9900         32090.000      51.303
  64.0900         31852.000      50.794
  64.1900         32200.000      51.118
  64.2900         32215.000      51.730
  64.3900         32854.000      51.971
  64.4900         33314.000      52.498
  64.5900         34817.000      53.647
  64.6900         39073.000      57.940
  64.7900         47712.000      63.222
  64.8900         59695.000      71.169
  64.9900         76258.000      80.156
  65.0900         94526.000      89.202
  65.1900        116676.000      99.685
  65.2900        141367.000     108.319
  65.3900        157348.000     114.333
  65.4900        157502.000     115.022
  65.5900        149196.000     111.045
  65.6900        134947.000     106.611
  65.7900        113889.000      97.370
  65.8900         89126.000      85.352
  65.9900         65996.000      73.844
  66.0900         49210.000      64.374
  66.1900         40896.000      58.489
  66.2900         36092.000      55.344
  66.3900         34671.000      53.544
  66.4900         32756.000      51.595
  66.5900         32100.000      51.711
  66.6900         31737.000      50.961
  66.7900         31598.000      51.264
  66.8900         31213.000      50.398
  66.9900         30740.000      49.214
  67.0900         30794.000      50.784
  67.1900         30888.000      50.319
  67.2900         30886.000      50.279
  67.3900         30547.000      51.293
  67.4900         30825.000      50.813
  67.5900         31290.000      51.118
  67.6900         32001.000      51.313
  67.7900         31754.000      50.606
  67.8900         31787.000      50.823
  67.9900         31202.000      50.369
  68.0900         30853.000      50.922
  68.1900         30274.000      50.020
  68.2900         30205.000      49.336
  68.3900         30299.000      50.289
  68.4900         30044.000      49.518
  68.5900         30118.000      50.379
  68.6900         29954.000      49.102
  68.7900         30473.000      49.900
  68.8900         30004.000      50.329
  68.9900         29814.000      48.765
  69.0900         29980.000      50.060
  69.1900         30084.000      48.969
  69.2900         29926.000      49.749
  69.3900         29819.000      49.699
  69.4900         30078.000      50.527
  69.5900         29850.000      49.990
  69.6900         29359.000      48.826
  69.7900         29773.000      49.386
  69.8900         29438.000      49.214
  69.9900         29758.000      50.030
  70.0900         29777.000      50.120
  70.1900         29375.000      48.765
  70.2900         29920.000      50.050
  70.3900         29580.000      50.020
  70.4900         29837.000      49.830
  70.5900         29477.000      49.769
  70.6900         29637.000      49.366
  70.7900         29606.000      49.538
  70.8900         29589.000      48.908
  70.9900         29664.000      49.082
  71.0900         29916.000      50.030
  71.1900         29891.000      49.153
  71.2900         30424.000      50.220
  71.3900         30499.000      50.774
  71.4900         30837.000      50.220
  71.5900         31417.000      50.882
  71.6900         31541.000      51.254
  71.7900         32129.000      52.115
  71.8900         32865.000      52.134
  71.9900         33248.000      52.583
  72.0900         32982.000      52.288
  72.1900         33330.000      51.691
  72.2900         33198.000      53.235
  72.3900         33448.000      53.235
  72.4900         32898.000      52.555
  72.5900         32615.000      51.430
  72.6900         32245.000      52.125
  72.7900         31643.000      50.725
  72.8900         31095.000      50.557
  72.9900         30798.000      49.970
  73.0900         30752.000      50.140
  73.1900         30111.000      49.041
  73.2900         29980.000      50.010
  73.3900         30159.000      50.170
  73.4900         30024.000      49.800
  73.5900         30276.000      50.060
  73.6900         30436.000      49.041
  73.7900         30404.000      50.438
  73.8900         30273.000      49.780
  73.9900         29727.000      49.940
  74.0900         29678.000      48.580
  74.1900         29351.000      49.920
  74.2900         29355.000      49.325
  74.3900         29427.000      50.813
  74.4900         29203.000      49.173
  74.5900         29626.000      48.847
  74.6900         29541.000      49.132
  74.7900         29935.000      48.785
  74.8900         29461.000      49.900
  74.9900         29503.000      49.568
  75.0900         29152.000      48.456
  75.1900         29373.000      49.518
  75.2900         29084.000      49.325
  75.3900         29517.000      49.840
  75.4900         29484.000      49.980
  75.5900         29840.000      50.408
  75.6900         29800.000      50.100
  75.7900         30037.000      50.319
  75.8900         30946.000      50.685
  75.9900         30883.000      49.910
  76.0900         31029.000      50.882
  76.1900         32473.000      51.215
  76.2900         35893.000      54.772
  76.3900         41313.000      59.330
  76.4900         49282.000      64.195
  76.5900         59756.000      70.328
  76.6900         70506.000      77.220
  76.7900         84323.000      82.994
  76.8900         98283.000      90.144
  76.9900        115416.000      97.877
  77.0900        134034.000     104.666
  77.1900        143562.000     109.357
  77.2900        144622.000     110.241
  77.3900        140187.000     108.770
  77.4900        130749.000     103.962
  77.5900        116178.000      97.473
  77.6900        100959.000      92.434
  77.7900         85497.000      85.159
  77.8900         68464.000      75.591
  77.9900         53113.000      66.581
  78.0900         43306.000      60.191
  78.1900         37417.000      55.830
  78.2900         34529.000      53.066
  78.3900         32820.000      51.633
  78.4900         31250.000      50.220
  78.5900         30039.000      50.229
  78.6900         30138.000      50.488
  78.7900         29931.000      50.210
  78.8900         29608.000      49.739
  78.9900         29766.000      48.703
  79.0900         29493.000      49.336
  79.1900         29474.000      49.619
  79.2900         29823.000      48.785
  79.3900         30164.000      50.180
  79.4900         29664.000      49.558
  79.5900         29628.000      49.366
  79.6900         29489.000      49.840
  79.7900         29381.000      48.949
  79.8900         29128.000      50.090
  79.9900         29012.000      48.672
  80.0900         28913.000      49.244
  80.1900         28675.000      48.785
  80.2900         28730.000      48.816
  80.3900         28467.000      48.765
  80.4900         28774.000      48.291
  80.5900         28687.000      47.032
  80.6900         28937.000      48.198
  80.7900         28574.000      48.775
  80.8900         28501.000      48.052
  80.9900         28535.000      48.734
  81.0900         28887.000      48.980
  81.1900         28688.000      48.311
  81.2900         28370.000      48.010
  81.3900         28335.000      48.590
  81.4900         28241.000      48.765
  81.5900         28685.000      49.122
  81.6900         28338.000      47.000
  81.7900         28489.000      47.969
  81.8900         28048.000      47.917
  81.9900         28475.000      48.384
  82.0900         28020.000      47.864
  82.1900         27964.000      48.734
  82.2900         28496.000      48.980
  82.3900         28362.000      48.497
  82.4900         28138.000      48.384
  82.5900         28161.000      47.885
  82.6900         28561.000      49.477
  82.7900         28388.000      48.713
  82.8900         28488.000      48.949
  82.9900         28371.000      48.662
  83.0900         28322.000      49.092
  83.1900         28732.000      48.518
  83.2900         28463.000      48.908
  83.3900         28428.000      49.183
  83.4900         28267.000      47.728
  83.5900         28129.000      48.693
  83.6900         28127.000      47.592
  83.7900         28412.000      48.280
  83.8900         28497.000      49.285
  83.9900         28170.000      48.270
  84.0900         28486.000      48.301
  84.1900         28364.000      48.826
  84.2900         28471.000      48.166
  84.3900         28267.000      47.487
  84.4900         28637.000      48.218
  84.5900         29227.000      49.487
  84.6900         29914.000      49.659
  84.7900         30527.000      50.675
  84.8900         31279.000      50.764
  84.9900         32675.000      52.631
  85.0900         33928.000      53.619
  85.1900         35488.000      53.094
  85.2900         36473.000      55.857
  85.3900         38187.000      57.297
  85.4900         40143.000      56.754
  85.5900         41649.000      58.481
  85.6900         42358.000      59.186
  85.7900         42436.000      59.641
  85.8900         42143.000      59.296
  85.9900         40372.000      57.784
  86.0900         39101.000      57.193
  86.1900         37340.000      54.873
  86.2900         35483.000      53.666
  86.3900         34404.000      53.749
  86.4900         32382.000      51.127
  86.5900         30922.000      50.902
  86.6900         30195.000      49.234
  86.7900         29199.000      49.173
  86.8900         28747.000      48.713
  86.9900         28707.000      49.020
  87.0900         28397.000      48.104
  87.1900         28537.000      48.332
  87.2900         28562.000      49.082
  87.3900         28796.000      49.346
  87.4900         29000.000      48.301
  87.5900         29079.000      49.447
  87.6900         30006.000      50.299
  87.7900         30220.000      50.220
  87.8900         31040.000      50.587
  87.9900         31498.000      50.616
  88.0900         32385.000      51.196
  88.1900         33014.000      52.934
  88.2900         34638.000      54.599
  88.3900         35565.000      54.295
  88.4900         35938.000      55.064
  88.5900         36467.000      55.308
  88.6900         36045.000      54.240
  88.7900         35457.000      54.342
  88.8900         34768.000      53.470
  88.9900         33817.000      52.240
  89.0900         32924.000      52.077
  89.1900         31388.000      50.922
  89.2900         30822.000      50.498
  89.3900         29754.000      49.477
  89.4900         29401.000      48.847
  89.5900         28927.000      49.346
  89.6900         28449.000      47.969
  89.7900         28628.000      48.508
  89.8900         28236.000      48.208
  89.9900         28221.000      47.381
  90.0900         28250.000      48.518
  90.1900         27945.000      48.146
  90.2900         27798.000      47.927
  90.3900         27968.000      48.125
  90.4900         28532.000      48.877
  90.5900         28449.000      48.672
  90.6900         28451.000      48.672
  90.7900         28358.000      48.322
  90.8900         28678.000      49.000
  90.9900         28825.000      47.823
  91.0900         28517.000      48.291
  91.1900         28483.000      47.843
  91.2900         28327.000      47.686
  91.3900         28447.000      49.204
  91.4900         28153.000      48.146
  91.5900         28392.000      48.363
  91.6900         28107.000      48.031
  91.7900         28296.000      47.603
  91.8900         28245.000      48.104
  91.9900         28155.000      48.466
  92.0900         28084.000      47.906
  92.1900         27859.000      47.958
  92.2900         27757.000      47.244
  92.3900         27736.000      47.969
  92.4900         27629.000      48.374
  92.5900         27889.000      48.734
  92.6900         28077.000      49.204
  92.7900         28017.000      47.770
  92.8900         27820.000      48.125
  92.9900         28001.000      47.843
  93.0900         28056.000      49.204
  93.1900         27756.000      48.125
  93.2900         27870.000      48.384
  93.3900         27780.000      47.686
  93.4900         27862.000      48.021
  93.5900         27913.000      47.697
  93.6900         27987.000      47.434
  93.7900         27407.000      46.979
  93.8900         27933.000      47.770
  93.9900         27692.000      47.958
  94.0900         27996.000      48.384
  94.1900         27676.000      48.559
  94.2900         28037.000      48.301
  94.3900         27677.000      47.032
  94.4900         27990.000      48.135
  94.5900         27717.000      47.697
  94.6900         28108.000      47.812
  94.7900         27865.000      47.634
  94.8900         27944.000      48.425
  94.9900         27844.000      47.645
  95.0900         27599.000      46.893
  95.1900         28195.000      48.425
  95.2900         28008.000      47.739
  95.3900         28042.000      47.487
  95.4900         28015.000      47.917
  95.5900         28239.000      48.436
  95.6900         27963.000      47.392
  95.7900         27946.000      48.166
  95.8900         28251.000      48.436
  95.9900         28437.000      48.559
  96.0900         28369.000      47.843
  96.1900         28506.000      48.384
  96.2900         28763.000      49.467
  96.3900         28473.000      48.857
  96.4900         28637.000      49.477
  96.5900         28744.000      49.427
  96.6900         28605.000      49.143
  96.7900         28213.000      47.990
  96.8900         28540.000      48.703
  96.9900         27816.000      48.166
  97.0900         27720.000      48.260
  97.1900         28036.000      48.477
  97.2900         27623.000      48.487
  97.3900         27868.000      47.760
  97.4900         27638.000      47.560
  97.5900         27858.000      47.011
  97.6900         27791.000      46.883
  97.7900         27705.000      48.508
  97.8900         27843.000      48.000
  97.9900         27809.000      48.311
  98.0900         27677.000      47.843
  98.1900         27877.000      48.249
  98.2900         27490.000      47.487
  98.3900         27812.000      48.021
  98.4900         28206.000      48.908
  98.5900         27820.000      47.518
  98.6900         27864.000      48.021
  98.7900         28268.000      48.260
  98.8900         28136.000      48.857
  98.9900         28439.000      48.528
  99.0900         28611.000      48.497
  99.1900         29141.000      49.285
  99.2900         29148.000      48.857
  99.3900         29504.000      49.305
  99.4900         30067.000      49.990
  99.5900         30685.000      50.931
  99.6900         31048.000      50.666
  99.7900         31411.000      50.892
  99.8900         31039.000      50.488
  99.9900         31186.000      50.498
 100.0900         30987.000      50.329
 100.1900         30548.000      50.030
 100.2900         30445.000      50.210
 100.3900         29937.000      49.890
 100.4900         29602.000      49.224
 100.5900         28952.000      48.857
 100.6900         28586.000      48.218
 100.7900         28108.000      48.301
 100.8900         27969.000      48.260
 100.9900         27752.000      47.802
 101.0900         27652.000      47.508
 101.1900         27804.000      48.260
 101.2900         27796.000      48.042
 101.3900         27383.000      47.191
 101.4900         27747.000      48.487
 101.5900         27382.000      47.686
 101.6900         27952.000      49.254
 101.7900         27888.000      47.990
 101.8900         28031.000      49.183
 101.9900         28294.000      49.538
 102.0900         27597.000      47.624
 102.1900         27938.000      48.466
 102.2900         28142.000      47.937
 102.3900         27868.000      48.208
 102.4900         27602.000      47.381
 102.5900         28075.000      48.135
 102.6900         27617.000      48.631
 102.7900         27928.000      47.582
 102.8900         27867.000      47.812
 102.9900         27546.000      48.073
 103.0900         27533.000      47.885
 103.1900         27814.000      47.191
 103.2900         27928.000      48.549
 103.3900         27424.000      48.590
 103.4900         27563.000      47.917
 103.5900         27381.000      48.332
 103.6900         27885.000      48.249
 103.7900         27789.000      47.770
 103.8900         27672.000      48.208
 103.9900         27588.000      48.239
 104.0900         27627.000      48.125
 104.1900         27625.000      48.857
 104.2900         27551.000      48.466
 104.3900         27853.000      47.969
 104.4900         27414.000      47.802
 104.5900         27855.000      48.083
 104.6900         28057.000      48.260
 104.7900         27846.000      47.381
 104.8900         27922.000      49.041
 104.9900         27747.000      48.000
 105.0900         27985.000      48.405
 105.1900         28002.000      47.875
 105.2900         27811.000      48.062
 105.3900         27355.000      46.465
 105.4900         27937.000      47.958
 105.5900         28075.000      47.686
 105.6900         27967.000      47.958
 105.7900         28113.000      48.094
 105.8900         28171.000      48.446
 105.9900         28080.000      49.224
 106.0900         28069.000      48.083
 106.1900         28247.000      48.425
 106.2900         28293.000      47.371
 106.3900         28353.000      48.456
 106.4900         28967.000      48.847
 106.5900         29731.000      49.608
 106.6900         30681.000      50.980
 106.7900         31889.000      51.604
 106.8900         33371.000      52.326
 106.9900         35299.000      53.647
 107.0900         37149.000      56.125
 107.1900         39644.000      57.035
 107.2900         42098.000      58.856
 107.3900         44973.000      61.294
 107.4900         48602.000      63.718
 107.5900         51688.000      65.161
 107.6900         55268.000      67.875
 107.7900         58996.000      68.920
 107.8900         61961.000      71.917
 107.9900         66328.000      73.702
 108.0900         69765.000      76.217
 108.1900         71696.000      77.369
 108.2900         73384.000      77.602
 108.3900         73353.000      78.479
 108.4900         73735.000      79.070
 108.5900         72894.000      77.917
 108.6900         71430.000      78.115
 108.7900         68966.000      75.743
 108.8900         64524.000      73.151
 108.9900         60132.000      70.150
 109.0900         55778.000      67.713
 109.1900         52047.000      65.353
 109.2900         50411.000      64.273
 109.3900         47789.000      63.482
 109.4900         43941.000      61.278
 109.5900         40672.000      58.822
 109.6900         37967.000      56.745
 109.7900         35117.000      53.852
 109.8900         32959.000      51.439
 109.9900         31690.000      50.695
 110.0900         30727.000      50.379
 110.1900         29810.000      50.130
 110.2900         29004.000      48.021
 110.3900         28995.000      49.315
 110.4900         28578.000      49.193
 110.5900         28265.000      48.208
 110.6900         28036.000      48.062
 110.7900         27828.000      47.927
 110.8900         27870.000      48.125
 110.9900         27789.000      47.127
 111.0900         27816.000      47.969
 111.1900         27676.000      48.249
 111.2900         27689.000      47.958
 111.3900         27744.000      48.021
 111.4900         27567.000      47.927
 111.5900         27367.000      48.135
 111.6900         27704.000      48.405
 111.7900         27758.000      49.051
 111.8900         27814.000      48.785
 111.9900         27581.000      47.864
 112.0900         28104.000      48.394
 112.1900         27639.000      47.308
 112.2900         27746.000      48.125
 112.3900         27589.000      47.529
 112.4900         27693.000      48.094
 112.5900         27443.000      47.043
 112.6900         28038.000      48.260
 112.7900         28105.000      48.867
 112.8900         27643.000      48.031
 112.9900         28041.000      47.582
 113.0900         27944.000      48.816
 113.1900         28272.000      47.350
 113.2900         28552.000      49.041
 113.3900         28019.000      47.718
 113.4900         27882.000      47.781
 113.5900         28121.000      48.888
 113.6900         28175.000      48.052
 113.7900         28495.000      49.153
 113.8900         27920.000      48.867
 113.9900         28246.000      48.939
 114.0900         27739.000      47.445
 114.1900         28235.000      48.229
 114.2900         27771.000      47.697
 114.3900         27981.000      48.363
 114.4900         27836.000      47.781
 114.5900         27511.000      48.415
 114.6900         27592.000      47.896
 114.7900         27648.000      47.582
 114.8900         27728.000      47.749
 114.9900         27452.000      48.198
 115.0900         27373.000      46.851
 115.1900         27403.000      47.181
 115.2900         27325.000      48.229
 115.3900         27281.000      47.833
 115.4900         27230.000      47.550
 115.5900         27418.000      47.233
 115.6900         27288.000      47.064
 115.7900         27370.000      47.770
 115.8900         27320.000      47.802
 115.9900         26933.000      47.350
 116.0900         27116.000      46.925
 116.1900         27365.000      47.948
 116.2900         27231.000      48.229
 116.3900         27331.000      48.301
 116.4900         26998.000      47.676
 116.5900         26917.000      47.127
 116.6900         27161.000      48.104
 116.7900         27109.000      47.202
 116.8900         27147.000      46.947
 116.9900         26958.000      46.637
 117.0900         27165.000      47.455
 117.1900         27393.000      47.760
 117.2900         27370.000      47.117
 117.3900         26886.000      47.000
 117.4900         27197.000      47.138
 117.5900         26875.000      47.497
 117.6900         27173.000      48.114
 117.7900         27036.000      47.043
 117.8900         26738.000      47.074
 117.9900         27281.000      46.249
 118.0900         27376.000      47.781
 118.1900         27035.000      47.917
 118.2900         27308.000      47.613
 118.3900         27157.000      46.936
 118.4900         27110.000      48.125
 118.5900         27112.000      47.582
 118.6900         26962.000      47.476
 118.7900         27174.000      47.096
 118.8900         26972.000      47.582
 118.9900         27152.000      47.466
 119.0900         27111.000      47.381
 119.1900         26868.000      46.562
 119.2900         26878.000      47.497
 119.3900         27143.000      46.787
 119.4900         27213.000      48.000
 119.5900         27246.000      47.308
 119.6900         27665.000      47.666
 119.7900         26919.000      47.707
 119.8900         27540.000      47.571
 119.9900         27260.000      47.434
 120.0900         27032.000      47.424
 120.1900         27212.000      47.403
 120.2900         27192.000      46.872
 120.3900         26951.000      47.308
 120.4900         27137.000      47.979
 120.5900         27523.000      48.198
 120.6900         27532.000      47.718
 120.7900         27731.000      48.187
 120.8900         27746.000      47.466
 120.9900         27806.000      48.425
 121.0900         27881.000      47.655
 121.1900         28063.000      49.163
 121.2900         28878.000      49.376
 121.3900         29721.000      49.689
 121.4900         30722.000      50.695
 121.5900         31956.000      51.769
 121.6900         33638.000      53.132
 121.7900         35670.000      53.777
 121.8900         39213.000      57.758
 121.9900         41374.000      58.464
 122.0900         44587.000      60.918
 122.1900         47627.000      63.040
 122.2900         50648.000      64.676
 122.3900         54185.000      67.127
 122.4900         57698.000      68.869
 122.5900         62220.000      72.014
 122.6900         67714.000      74.639
 122.7900         73075.000      77.259
 122.8900         78060.000      80.759
 122.9900         83168.000      84.593
 123.0900         88800.000      86.047
 123.1900         93370.000      87.721
 123.2900        100469.000      91.570
 123.3900        106718.000      94.689
 123.4900        113500.000      97.345
 123.5900        118887.000      98.752
 123.6900        123506.000     101.794
 123.7900        126205.000     102.396
 123.8900        128635.000     103.576
 123.9900        130290.000     104.886
 124.0900        130512.000     105.167
 124.1900        130365.000     104.819
 124.2900        129071.000     104.014
 124.3900        126872.000     102.669
 124.4900        123235.000     101.622
 124.5900        117111.000      98.580
 124.6900        111171.000      97.442
 124.7900        102974.000      92.698
 124.8900         94528.000      88.216
 124.9900         87552.000      85.200
 125.0900         83216.000      82.583
 125.1900         80650.000      81.154
 125.2900         76458.000      80.131
 125.3900         72164.000      76.981
 125.4900         66787.000      74.586
 125.5900         61436.000      71.708
 125.6900         55934.000      68.520
 125.7900         50966.000      65.947
 125.8900         46576.000      62.570
 125.9900         43307.000      60.655
 126.0900         39943.000      58.198
 126.1900         37745.000      55.964
 126.2900         35062.000      53.600
 126.3900         33963.000      52.659
 126.4900         32965.000      52.202
 126.5900         31787.000      51.478
 126.6900         31170.000      51.000
 126.7900         30685.000      50.922
 126.8900         29973.000      49.193
 126.9900         29940.000      50.060
 127.0900         29106.000      49.204
 127.1900         28972.000      49.568
 127.2900         28446.000      48.734
 127.3900         28446.000      48.394
 127.4900         27802.000      48.280
 127.5900         27791.000      48.425
 127.6900         27446.000      48.073
 127.7900         27848.000      48.343
 127.8900         27621.000      48.508
 127.9900         27010.000      47.074
 128.0900         27457.000      47.854
 128.1900         26989.000      47.539
 128.2900         26869.000      46.936
 128.3900         26953.000      47.948
 128.4900         26986.000      47.529
 128.5900             6.000       1.000
 128.6900             9.000       1.000
