XYDATA SparksLave Co3O4-quenched_800_300K 
INTER        1       1       0     0.100000
TEMP       298.338      300.007      300.000
! d1b Date 16-Nov-11 Time 08:17:22 Run 130118 130107>130118
! d1b Date 16-Nov-11 Time 08:17:22 Run 130118 130107>130118
! Monitor/counts, Counting time/sec:  1.07182e+007 1.07182e+007
   0.7900             5.000       1.000
   0.8900             4.000       1.000
   0.9900          1889.000      11.916
   1.0900          1751.000      11.832
   1.1900          1821.000      13.153
   1.2900          1797.000      12.042
   1.3900          1741.000      12.923
   1.4900          1815.000      12.083
   1.5900          1913.000      12.000
   1.6900          1949.000      13.229
   1.7900          2520.000      14.353
   1.8900          3929.000      18.193
   1.9900          6492.000      22.561
   2.0900          8768.000      26.739
   2.1900         11084.000      29.223
   2.2900         14082.000      33.571
   2.3900         17478.000      38.393
   2.4900         21667.000      41.437
   2.5900         25156.000      44.788
   2.6900         28912.000      48.042
   2.7900         32162.000      51.332
   2.8900         34635.000      52.507
   2.9900         37470.000      54.909
   3.0900         40421.000      56.815
   3.1900         43416.000      60.083
   3.2900         44978.000      60.597
   3.3900         45535.000      61.294
   3.4900         44344.000      60.564
   3.5900         43981.000      59.775
   3.6900         43348.000      59.708
   3.7900         42933.000      59.059
   3.8900         42094.000      58.164
   3.9900         42538.000      59.758
   4.0900         42332.000      59.464
   4.1900         42339.000      59.464
   4.2900         42713.000      59.925
   4.3900         42649.000      59.051
   4.4900         43439.000      60.058
   4.5900         44731.000      60.498
   4.6900         46535.000      62.274
   4.7900         47491.000      62.466
   4.8900         49288.000      63.679
   4.9900         50241.000      64.452
   5.0900         52020.000      65.574
   5.1900         53769.000      66.791
   5.2900         55167.000      68.345
   5.3900         56866.000      68.469
   5.4900         57557.000      69.275
   5.5900         59725.000      70.824
   5.6900         60908.000      70.986
   5.7900         61789.000      71.526
   5.8900         64299.000      73.048
   5.9900         64814.000      73.321
   6.0900         65972.000      73.865
   6.1900         65927.000      74.095
   6.2900         65831.000      74.579
   6.3900         65913.000      74.223
   6.4900         66071.000      74.552
   6.5900         65602.000      74.900
   6.6900         64496.000      73.383
   6.7900         64885.000      73.743
   6.8900         64041.000      73.573
   6.9900         63513.000      73.151
   7.0900         62930.000      72.312
   7.1900         62242.000      71.896
   7.2900         62077.000      71.379
   7.3900         61562.000      71.910
   7.4900         60524.000      70.689
   7.5900         60315.000      70.838
   7.6900         58665.000      70.732
   7.7900         58247.000      70.050
   7.8900         56929.000      69.051
   7.9900         56678.000      69.318
   8.0900         55882.000      68.600
   8.1900         55084.000      68.096
   8.2900         54738.000      67.809
   8.3900         53498.000      66.038
   8.4900         52854.000      65.635
   8.5900         51572.000      66.151
   8.6900         51296.000      66.197
   8.7900         49973.000      65.154
   8.8900         49581.000      64.335
   8.9900         48813.000      63.600
   9.0900         48170.000      64.062
   9.1900         47232.000      63.111
   9.2900         46482.000      62.889
   9.3900         45690.000      61.652
   9.4900         44778.000      61.668
   9.5900         44095.000      62.056
   9.6900         42694.000      60.382
   9.7900         42336.000      60.075
   9.8900         41108.000      58.215
   9.9900         40558.000      57.810
  10.0900         39691.000      57.853
  10.1900         39078.000      58.121
  10.2900         38007.000      56.947
  10.3900         37346.000      55.597
  10.4900         37005.000      55.678
  10.5900         36466.000      55.399
  10.6900         35497.000      54.544
  10.7900         35802.000      55.236
  10.8900         35185.000      54.185
  10.9900         34303.000      53.805
  11.0900         34544.000      53.301
  11.1900         33960.000      52.906
  11.2900         33987.000      53.582
  11.3900         34560.000      54.019
  11.4900         33571.000      52.745
  11.5900         34623.000      54.046
  11.6900         34246.000      53.217
  11.7900         34213.000      52.839
  11.8900         34080.000      53.104
  11.9900         34011.000      52.507
  12.0900         33943.000      53.348
  12.1900         33913.000      52.316
  12.2900         33576.000      52.773
  12.3900         34216.000      53.085
  12.4900         33971.000      53.628
  12.5900         33874.000      52.849
  12.6900         34024.000      53.047
  12.7900         34064.000      53.085
  12.8900         33993.000      52.962
  12.9900         33878.000      52.896
  13.0900         34063.000      53.516
  13.1900         33860.000      52.355
  13.2900         33929.000      52.858
  13.3900         33185.000      52.802
  13.4900         33577.000      52.754
  13.5900         33580.000      53.245
  13.6900         33602.000      52.678
  13.7900         33664.000      53.712
  13.8900         33621.000      52.602
  13.9900         33619.000      52.811
  14.0900         33411.000      52.163
  14.1900         33556.000      51.962
  14.2900         33859.000      52.335
  14.3900         33500.000      53.619
  14.4900         33570.000      53.226
  14.5900         33681.000      52.839
  14.6900         33849.000      52.640
  14.7900         33589.000      52.545
  14.8900         33267.000      52.564
  14.9900         33878.000      53.442
  15.0900         33608.000      53.432
  15.1900         33982.000      53.329
  15.2900         34527.000      53.712
  15.3900         35058.000      53.879
  15.4900         34866.000      54.516
  15.5900         34316.000      52.877
  15.6900         34090.000      53.179
  15.7900         33453.000      52.412
  15.8900         33310.000      52.602
  15.9900         34111.000      52.896
  16.0900         33273.000      52.962
  16.1900         33770.000      52.564
  16.2900         33630.000      52.991
  16.3900         33403.000      52.421
  16.4900         33439.000      52.745
  16.5900         33291.000      53.879
  16.6900         33416.000      52.048
  16.7900         34049.000      53.282
  16.8900         33205.000      52.488
  16.9900         33719.000      53.057
  17.0900         33748.000      53.000
  17.1900         33428.000      52.726
  17.2900         33823.000      52.621
  17.3900         33163.000      52.858
  17.4900         33802.000      53.235
  17.5900         33652.000      52.574
  17.6900         33808.000      53.217
  17.7900         33859.000      53.610
  17.8900         33771.000      53.768
  17.9900         33865.000      53.038
  18.0900         33804.000      52.972
  18.1900         33590.000      52.564
  18.2900         33880.000      52.924
  18.3900         33578.000      52.421
  18.4900         33821.000      53.423
  18.5900         33739.000      52.431
  18.6900         33791.000      52.745
  18.7900         33513.000      53.226
  18.8900         33585.000      52.488
  18.9900         34099.000      53.235
  19.0900         33590.000      53.113
  19.1900         33449.000      52.697
  19.2900         34179.000      53.160
  19.3900         33625.000      53.507
  19.4900         33749.000      53.451
  19.5900         33397.000      53.544
  19.6900         33569.000      53.376
  19.7900         33994.000      53.376
  19.8900         33999.000      53.094
  19.9900         33774.000      53.395
  20.0900         33485.000      52.182
  20.1900         33523.000      52.678
  20.2900         33967.000      53.075
  20.3900         33696.000      53.094
  20.4900         33486.000      52.125
  20.5900         34208.000      53.320
  20.6900         34316.000      52.953
  20.7900         33777.000      52.650
  20.8900         34047.000      53.610
  20.9900         33599.000      52.602
  21.0900         33638.000      53.954
  21.1900         34099.000      53.488
  21.2900         33934.000      53.075
  21.3900         33880.000      54.240
  21.4900         33725.000      52.345
  21.5900         33703.000      52.764
  21.6900         33658.000      53.273
  21.7900         33695.000      53.488
  21.8900         33601.000      53.535
  21.9900         33752.000      52.802
  22.0900         33727.000      52.555
  22.1900         33993.000      53.038
  22.2900         33451.000      52.887
  22.3900         33409.000      52.726
  22.4900         33601.000      53.235
  22.5900         33513.000      52.412
  22.6900         33600.000      53.207
  22.7900         33712.000      52.707
  22.8900         33777.000      53.600
  22.9900         33817.000      53.329
  23.0900         33902.000      53.451
  23.1900         33724.000      52.659
  23.2900         33905.000      52.754
  23.3900         34005.000      52.924
  23.4900         33546.000      52.269
  23.5900         33746.000      52.868
  23.6900         33889.000      54.009
  23.7900         34031.000      52.134
  23.8900         34579.000      53.814
  23.9900         34259.000      52.374
  24.0900         34056.000      53.217
  24.1900         33759.000      53.009
  24.2900         33392.000      52.820
  24.3900         33537.000      52.240
  24.4900         33722.000      53.047
  24.5900         34082.000      53.395
  24.6900         33445.000      52.269
  24.7900         33512.000      53.188
  24.8900         33954.000      53.207
  24.9900         33904.000      53.796
  25.0900         33483.000      53.170
  25.1900         33945.000      53.879
  25.2900         33984.000      52.498
  25.3900         34356.000      54.074
  25.4900         34542.000      52.849
  25.5900         34081.000      52.981
  25.6900         34404.000      53.057
  25.7900         33507.000      53.339
  25.8900         33910.000      53.423
  25.9900         33649.000      53.235
  26.0900         33693.000      52.877
  26.1900         34215.000      52.962
  26.2900         33767.000      52.355
  26.3900         33797.000      52.507
  26.4900         33586.000      52.659
  26.5900         33941.000      52.659
  26.6900         33791.000      53.113
  26.7900         34029.000      53.722
  26.8900         33690.000      52.517
  26.9900         33567.000      52.640
  27.0900         33837.000      52.915
  27.1900         33822.000      52.962
  27.2900         33947.000      53.526
  27.3900         34056.000      52.688
  27.4900         34151.000      53.094
  27.5900         33637.000      52.896
  27.6900         33688.000      52.221
  27.7900         33742.000      53.170
  27.8900         33997.000      52.669
  27.9900         34067.000      53.038
  28.0900         33874.000      53.179
  28.1900         33958.000      52.915
  28.2900         33674.000      54.065
  28.3900         34181.000      52.887
  28.4900         33743.000      53.610
  28.5900         33881.000      52.915
  28.6900         33804.000      53.292
  28.7900         33971.000      53.842
  28.8900         34057.000      53.009
  28.9900         34078.000      53.282
  29.0900         34074.000      53.104
  29.1900         34101.000      54.323
  29.2900         34168.000      53.207
  29.3900         33975.000      52.564
  29.4900         34019.000      52.583
  29.5900         33969.000      52.536
  29.6900         33799.000      52.953
  29.7900         34629.000      54.314
  29.8900         34642.000      54.120
  29.9900         34804.000      53.188
  30.0900         35115.000      55.045
  30.1900         34428.000      54.185
  30.2900         34574.000      53.610
  30.3900         34059.000      53.292
  30.4900         34395.000      53.395
  30.5900         34690.000      52.896
  30.6900         34640.000      53.879
  30.7900         35042.000      54.102
  30.8900         36235.000      54.589
  30.9900         40949.000      58.361
  31.0900         53688.000      66.596
  31.1900         71717.000      77.246
  31.2900         85473.000      84.333
  31.3900         83033.000      82.632
  31.4900         65022.000      73.566
  31.5900         47322.000      62.586
  31.6900         38356.000      57.541
  31.7900         35546.000      53.889
  31.8900         34769.000      53.591
  31.9900         34544.000      53.944
  32.0900         34616.000      53.348
  32.1900         34232.000      53.188
  32.2900         34125.000      52.678
  32.3900         34084.000      52.915
  32.4900         33946.000      53.132
  32.5900         33994.000      52.316
  32.6900         33751.000      52.364
  32.7900         34191.000      53.348
  32.8900         33992.000      51.990
  32.9900         34339.000      54.268
  33.0900         33902.000      53.638
  33.1900         34240.000      53.582
  33.2900         33854.000      52.431
  33.3900         34152.000      53.348
  33.4900         33927.000      53.507
  33.5900         34214.000      52.316
  33.6900         33824.000      52.943
  33.7900         34247.000      52.962
  33.8900         34033.000      53.170
  33.9900         34020.000      54.176
  34.0900         34770.000      53.488
  34.1900         35102.000      53.870
  34.2900         34748.000      53.320
  34.3900         34300.000      53.777
  34.4900         34103.000      53.395
  34.5900         33853.000      52.943
  34.6900         34326.000      53.796
  34.7900         33800.000      52.858
  34.8900         33885.000      53.123
  34.9900         33881.000      52.650
  35.0900         33840.000      53.226
  35.1900         33486.000      53.301
  35.2900         33786.000      53.423
  35.3900         33477.000      53.254
  35.4900         33952.000      52.431
  35.5900         33937.000      52.402
  35.6900         34047.000      52.297
  35.7900         33577.000      52.631
  35.8900         33854.000      53.301
  35.9900         33862.000      53.479
  36.0900         35497.000      54.139
  36.1900         38487.000      55.973
  36.2900         42593.000      59.749
  36.3900         42548.000      59.908
  36.4900         38666.000      56.947
  36.5900         35607.000      54.580
  36.6900         34011.000      53.666
  36.7900         33775.000      53.066
  36.8900         33558.000      52.602
  36.9900         33713.000      52.783
  37.0900         33623.000      52.839
  37.1900         33709.000      53.600
  37.2900         33741.000      52.173
  37.3900         33746.000      52.640
  37.4900         33529.000      52.962
  37.5900         33617.000      52.612
  37.6900         33199.000      52.839
  37.7900         33432.000      52.678
  37.8900         33364.000      52.450
  37.9900         33238.000      52.707
  38.0900         33692.000      52.316
  38.1900         33668.000      53.395
  38.2900         33546.000      53.132
  38.3900         33323.000      52.669
  38.4900         33598.000      53.488
  38.5900         33298.000      53.179
  38.6900         33752.000      53.376
  38.7900         33612.000      52.555
  38.8900         33385.000      51.952
  38.9900         33431.000      53.217
  39.0900         33332.000      53.019
  39.1900         33189.000      52.125
  39.2900         33145.000      52.678
  39.3900         33479.000      53.526
  39.4900         33595.000      53.188
  39.5900         33828.000      53.151
  39.6900         34204.000      53.376
  39.7900         34089.000      52.754
  39.8900         33751.000      53.094
  39.9900         33891.000      52.621
  40.0900         33530.000      52.659
  40.1900         33663.000      52.707
  40.2900         33922.000      53.451
  40.3900         33811.000      53.647
  40.4900         33722.000      52.707
  40.5900         33102.000      52.962
  40.6900         33247.000      52.067
  40.7900         33334.000      52.792
  40.8900         32919.000      52.307
  40.9900         33524.000      52.962
  41.0900         33584.000      53.647
  41.1900         33408.000      51.962
  41.2900         33583.000      52.906
  41.3900         33162.000      52.669
  41.4900         33173.000      52.479
  41.5900         33198.000      51.827
  41.6900         33333.000      53.498
  41.7900         33261.000      52.545
  41.8900         33093.000      52.802
  41.9900         32945.000      52.450
  42.0900         33168.000      52.431
  42.1900         33364.000      52.868
  42.2900         33152.000      52.269
  42.3900         33173.000      53.544
  42.4900         33220.000      53.151
  42.5900         32934.000      52.517
  42.6900         33063.000      52.288
  42.7900         33145.000      52.962
  42.8900         33092.000      52.460
  42.9900         33129.000      52.240
  43.0900         33297.000      53.104
  43.1900         33024.000      52.383
  43.2900         33259.000      53.516
  43.3900         33440.000      52.507
  43.4900         33116.000      52.096
  43.5900         33277.000      51.749
  43.6900         32892.000      52.335
  43.7900         32936.000      51.614
  43.8900         32950.000      51.894
  43.9900         33292.000      52.307
  44.0900         32876.000      52.526
  44.1900         33286.000      52.811
  44.2900         33361.000      52.783
  44.3900         33218.000      53.057
  44.4900         33097.000      52.125
  44.5900         33249.000      52.355
  44.6900         32961.000      53.442
  44.7900         33432.000      52.450
  44.8900         32924.000      52.383
  44.9900         33267.000      52.631
  45.0900         33127.000      52.173
  45.1900         33429.000      51.817
  45.2900         33124.000      53.470
  45.3900         32941.000      51.856
  45.4900         33389.000      53.235
  45.5900         33245.000      53.179
  45.6900         33233.000      52.259
  45.7900         32897.000      51.981
  45.8900         33147.000      52.536
  45.9900         33038.000      53.104
  46.0900         33030.000      52.307
  46.1900         32979.000      52.887
  46.2900         33233.000      53.009
  46.3900         33352.000      52.545
  46.4900         33283.000      52.924
  46.5900         33423.000      52.943
  46.6900         33282.000      53.498
  46.7900         33048.000      52.555
  46.8900         33116.000      52.574
  46.9900         33031.000      52.096
  47.0900         33419.000      52.106
  47.1900         33327.000      52.602
  47.2900         33136.000      52.526
  47.3900         33274.000      52.697
  47.4900         33507.000      52.849
  47.5900         34278.000      53.254
  47.6900         36400.000      54.534
  47.7900         36897.000      54.800
  47.8900         36447.000      54.791
  47.9900         35458.000      54.194
  48.0900         34010.000      53.498
  48.1900         33552.000      52.906
  48.2900         33498.000      52.517
  48.3900         33013.000      53.038
  48.4900         33543.000      52.345
  48.5900         33514.000      53.526
  48.6900         33357.000      52.364
  48.7900         33473.000      52.858
  48.8900         32561.000      52.038
  48.9900         33429.000      53.038
  49.0900         33096.000      52.058
  49.1900         33635.000      52.773
  49.2900         33434.000      52.953
  49.3900         33308.000      51.904
  49.4900         33229.000      52.887
  49.5900         33107.000      53.075
  49.6900         33225.000      52.259
  49.7900         33295.000      52.887
  49.8900         33355.000      52.526
  49.9900         33743.000      52.915
  50.0900         33497.000      52.393
  50.1900         33614.000      52.421
  50.2900         33191.000      52.972
  50.3900         33525.000      53.038
  50.4900         33371.000      52.555
  50.5900         33093.000      52.545
  50.6900         33049.000      52.421
  50.7900         33148.000      53.123
  50.8900         33239.000      53.310
  50.9900         33257.000      52.029
  51.0900         33601.000      53.028
  51.1900         33242.000      52.754
  51.2900         33359.000      52.173
  51.3900         33687.000      52.134
  51.4900         32999.000      52.924
  51.5900         33365.000      52.460
  51.6900         33485.000      52.811
  51.7900         34208.000      54.148
  51.8900         35813.000      55.145
  51.9900         38206.000      56.374
  52.0900         42130.000      58.541
  52.1900         48505.000      64.653
  52.2900         54934.000      68.096
  52.3900         55770.000      68.775
  52.4900         52682.000      66.295
  52.5900         46763.000      62.306
  52.6900         40407.000      57.585
  52.7900         35553.000      54.433
  52.8900         34441.000      53.301
  52.9900         33397.000      52.574
  53.0900         33392.000      52.830
  53.1900         33353.000      52.612
  53.2900         33263.000      52.393
  53.3900         33461.000      53.254
  53.4900         33166.000      53.151
  53.5900         33322.000      52.659
  53.6900         33124.000      51.952
  53.7900         33836.000      52.849
  53.8900         33429.000      52.678
  53.9900         33582.000      53.254
  54.0900         33179.000      52.488
  54.1900         33446.000      53.094
  54.2900         33345.000      52.934
  54.3900         33172.000      52.383
  54.4900         33009.000      52.507
  54.5900         33611.000      53.282
  54.6900         33415.000      52.745
  54.7900         33387.000      52.374
  54.8900         34066.000      52.868
  54.9900         34032.000      52.355
  55.0900         33865.000      53.926
  55.1900         33520.000      52.574
  55.2900         33732.000      52.134
  55.3900         33765.000      52.792
  55.4900         33273.000      52.631
  55.5900         33386.000      52.479
  55.6900         33471.000      52.450
  55.7900         33572.000      53.310
  55.8900         33491.000      53.498
  55.9900         33073.000      52.374
  56.0900         33504.000      51.430
  56.1900         33323.000      52.678
  56.2900         33111.000      53.442
  56.3900         33191.000      52.849
  56.4900         33388.000      53.123
  56.5900         33250.000      52.621
  56.6900         33384.000      52.163
  56.7900         33321.000      53.666
  56.8900         33083.000      51.807
  56.9900         33095.000      52.602
  57.0900         33528.000      53.479
  57.1900         33321.000      53.075
  57.2900         33342.000      52.830
  57.3900         33617.000      52.631
  57.4900         32974.000      53.038
  57.5900         32985.000      53.085
  57.6900         33092.000      52.707
  57.7900         33282.000      53.395
  57.8900         33321.000      53.038
  57.9900         33309.000      52.726
  58.0900         33154.000      52.858
  58.1900         33051.000      52.259
  58.2900         33118.000      53.619
  58.3900         33103.000      52.498
  58.4900         32931.000      51.933
  58.5900         33352.000      52.906
  58.6900         33221.000      52.211
  58.7900         33034.000      52.688
  58.8900         33040.000      51.923
  58.9900         32922.000      51.798
  59.0900         33039.000      52.297
  59.1900         33368.000      53.094
  59.2900         33321.000      52.498
  59.3900         32980.000      52.536
  59.4900         33371.000      52.364
  59.5900         33487.000      53.423
  59.6900         33455.000      52.688
  59.7900         33103.000      52.202
  59.8900         33297.000      52.545
  59.9900         33314.000      52.173
  60.0900         33234.000      52.574
  60.1900         33196.000      52.754
  60.2900         33405.000      53.141
  60.3900         33294.000      52.820
  60.4900         32939.000      52.612
  60.5900         33052.000      52.288
  60.6900         33128.000      52.877
  60.7900         33473.000      52.211
  60.8900         33696.000      53.273
  60.9900         33630.000      52.631
  61.0900         33534.000      52.488
  61.1900         33567.000      52.669
  61.2900         33930.000      53.554
  61.3900         34112.000      53.666
  61.4900         34127.000      52.839
  61.5900         34120.000      52.688
  61.6900         36031.000      55.245
  61.7900         37356.000      56.436
  61.8900         40181.000      57.263
  61.9900         42698.000      59.942
  62.0900         47451.000      63.482
  62.1900         51550.000      65.246
  62.2900         53853.000      66.061
  62.3900         52421.000      65.452
  62.4900         49946.000      63.214
  62.5900         46420.000      61.992
  62.6900         42526.000      60.638
  62.7900         38312.000      56.780
  62.8900         35696.000      53.935
  62.9900         34403.000      53.038
  63.0900         33932.000      53.113
  63.1900         33513.000      53.028
  63.2900         33464.000      53.009
  63.3900         33413.000      52.659
  63.4900         33356.000      53.019
  63.5900         33630.000      52.431
  63.6900         33604.000      53.188
  63.7900         33628.000      52.211
  63.8900         33611.000      53.376
  63.9900         33791.000      52.792
  64.0900         34223.000      53.712
  64.1900         34195.000      52.745
  64.2900         34256.000      53.395
  64.3900         34708.000      54.470
  64.4900         35613.000      54.443
  64.5900         38086.000      56.604
  64.6900         44574.000      60.514
  64.7900         56873.000      68.037
  64.8900         73421.000      78.721
  64.9900         93677.000      88.589
  65.0900        115743.000      97.370
  65.1900        143173.000     109.133
  65.2900        169693.000     118.718
  65.3900        179318.000     120.835
  65.4900        171626.000     119.867
  65.5900        159044.000     113.186
  65.6900        138826.000     106.672
  65.7900        111986.000      95.179
  65.8900         82767.000      82.620
  65.9900         58740.000      69.174
  66.0900         46197.000      62.249
  66.1900         40122.000      57.359
  66.2900         36997.000      55.731
  66.3900         35234.000      54.461
  66.4900         34159.000      53.395
  66.5900         33517.000      52.421
  66.6900         33534.000      53.009
  66.7900         33125.000      53.066
  66.8900         33404.000      53.423
  66.9900         33139.000      52.067
  67.0900         32790.000      52.000
  67.1900         32639.000      51.942
  67.2900         33185.000      53.282
  67.3900         32896.000      52.249
  67.4900         33525.000      51.836
  67.5900         34040.000      53.329
  67.6900         34351.000      53.852
  67.7900         34203.000      52.792
  67.8900         33741.000      51.884
  67.9900         33187.000      53.273
  68.0900         32834.000      52.479
  68.1900         32581.000      52.402
  68.2900         32381.000      52.163
  68.3900         31882.000      52.583
  68.4900         32109.000      51.078
  68.5900         31884.000      51.176
  68.6900         32172.000      52.650
  68.7900         32209.000      51.711
  68.8900         31890.000      51.371
  68.9900         32149.000      52.240
  69.0900         32226.000      52.019
  69.1900         32027.000      51.769
  69.2900         32077.000      52.555
  69.3900         31721.000      51.235
  69.4900         32148.000      51.439
  69.5900         32016.000      51.498
  69.6900         32154.000      52.364
  69.7900         31718.000      51.049
  69.8900         31926.000      51.894
  69.9900         31651.000      51.147
  70.0900         31941.000      51.653
  70.1900         31717.000      50.616
  70.2900         31963.000      52.364
  70.3900         31718.000      51.817
  70.4900         32113.000      51.391
  70.5900         32008.000      51.527
  70.6900         31530.000      51.498
  70.7900         32136.000      51.913
  70.8900         31894.000      52.125
  70.9900         32075.000      52.297
  71.0900         31902.000      51.653
  71.1900         32466.000      51.245
  71.2900         33177.000      52.555
  71.3900         33135.000      52.688
  71.4900         33531.000      52.555
  71.5900         33867.000      52.431
  71.6900         34437.000      52.972
  71.7900         34591.000      54.083
  71.8900         35048.000      53.722
  71.9900         35493.000      54.991
  72.0900         35649.000      54.470
  72.1900         35729.000      54.028
  72.2900         35288.000      53.263
  72.3900         34930.000      54.120
  72.4900         34572.000      53.423
  72.5900         33991.000      52.877
  72.6900         33486.000      53.019
  72.7900         33378.000      52.517
  72.8900         32580.000      51.942
  72.9900         32590.000      51.788
  73.0900         32269.000      51.827
  73.1900         32220.000      53.038
  73.2900         31884.000      51.254
  73.3900         32372.000      51.778
  73.4900         32645.000      52.621
  73.5900         32798.000      51.439
  73.6900         32676.000      52.650
  73.7900         32528.000      52.773
  73.8900         32452.000      51.894
  73.9900         31760.000      51.293
  74.0900         31695.000      51.371
  74.1900         31366.000      49.880
  74.2900         31528.000      51.020
  74.3900         31314.000      51.585
  74.4900         31549.000      51.391
  74.5900         31305.000      50.329
  74.6900         31458.000      51.749
  74.7900         31414.000      51.049
  74.8900         31494.000      50.448
  74.9900         31659.000      50.872
  75.0900         31337.000      51.527
  75.1900         31661.000      51.459
  75.2900         31843.000      51.575
  75.3900         31921.000      51.029
  75.4900         31713.000      51.565
  75.5900         31707.000      51.098
  75.6900         32082.000      51.029
  75.7900         32286.000      52.221
  75.8900         32350.000      51.478
  75.9900         32931.000      50.507
  76.0900         34259.000      53.019
  76.1900         36649.000      55.660
  76.2900         41743.000      58.796
  76.3900         50021.000      65.062
  76.4900         61781.000      71.246
  76.5900         75178.000      78.956
  76.6900         90620.000      87.704
  76.7900        106124.000      94.186
  76.8900        124677.000     101.336
  76.9900        149743.000     111.485
  77.0900        165854.000     117.009
  77.1900        170983.000     118.798
  77.2900        166110.000     116.572
  77.3900        159062.000     113.380
  77.4900        141580.000     107.159
  77.5900        122601.000     100.265
  77.6900        104521.000      92.666
  77.7900         84333.000      83.385
  77.8900         64261.000      72.111
  77.9900         50028.000      63.797
  78.0900         42012.000      58.703
  78.1900         38107.000      56.710
  78.2900         35732.000      54.129
  78.3900         33540.000      53.516
  78.4900         32894.000      52.019
  78.5900         31936.000      51.098
  78.6900         31777.000      51.420
  78.7900         31580.000      51.235
  78.8900         31398.000      50.735
  78.9900         31902.000      51.778
  79.0900         31383.000      50.239
  79.1900         31427.000      50.666
  79.2900         31819.000      51.215
  79.3900         31673.000      51.371
  79.4900         31902.000      52.192
  79.5900         31373.000      50.922
  79.6900         31225.000      50.980
  79.7900         31019.000      50.922
  79.8900         31284.000      51.400
  79.9900         31126.000      50.980
  80.0900         31097.000      51.069
  80.1900         31003.000      52.221
  80.2900         30804.000      50.398
  80.3900         30745.000      50.040
  80.4900         30876.000      50.853
  80.5900         30692.000      49.538
  80.6900         31009.000      50.468
  80.7900         30721.000      51.439
  80.8900         30361.000      50.418
  80.9900         30578.000      50.616
  81.0900         30215.000      51.088
  81.1900         30310.000      50.616
  81.2900         30489.000      49.840
  81.3900         30410.000      50.675
  81.4900         30389.000      50.190
  81.5900         30332.000      49.315
  81.6900         30292.000      49.920
  81.7900         30346.000      50.478
  81.8900         30337.000      50.000
  81.9900         30230.000      49.920
  82.0900         30103.000      49.305
  82.1900         30543.000      50.666
  82.2900         30449.000      50.319
  82.3900         30547.000      50.408
  82.4900         30304.000      49.800
  82.5900         30378.000      50.744
  82.6900         30271.000      49.920
  82.7900         30276.000      49.739
  82.8900         30727.000      50.587
  82.9900         30553.000      50.813
  83.0900         29905.000      49.071
  83.1900         30413.000      49.830
  83.2900         30367.000      50.220
  83.3900         30389.000      50.754
  83.4900         30075.000      49.840
  83.5900         30236.000      50.090
  83.6900         30348.000      50.319
  83.7900         30138.000      50.120
  83.8900         30277.000      49.790
  83.9900         29926.000      49.739
  84.0900         29988.000      49.830
  84.1900         30011.000      50.180
  84.2900         30737.000      50.438
  84.3900         30078.000      50.269
  84.4900         30359.000      49.467
  84.5900         30780.000      50.990
  84.6900         31870.000      51.342
  84.7900         32446.000      51.865
  84.8900         33305.000      52.106
  84.9900         34538.000      54.268
  85.0900         35775.000      54.360
  85.1900         36796.000      55.642
  85.2900         38219.000      56.965
  85.3900         39861.000      58.541
  85.4900         41096.000      58.275
  85.5900         42113.000      59.304
  85.6900         42291.000      58.932
  85.7900         41967.000      58.447
  85.8900         41263.000      58.992
  85.9900         39971.000      57.784
  86.0900         38184.000      55.920
  86.1900         36738.000      56.160
  86.2900         35328.000      54.074
  86.3900         34193.000      53.451
  86.4900         32744.000      52.115
  86.5900         31057.000      50.170
  86.6900         30981.000      51.556
  86.7900         30370.000      49.790
  86.8900         30434.000      49.679
  86.9900         30113.000      50.050
  87.0900         30199.000      50.596
  87.1900         29817.000      50.110
  87.2900         30020.000      49.860
  87.3900         29856.000      50.100
  87.4900         29859.000      50.675
  87.5900         30038.000      49.457
  87.6900         29906.000      49.265
  87.7900         29876.000      49.679
  87.8900         30217.000      50.507
  87.9900         30223.000      49.477
  88.0900         30536.000      50.080
  88.1900         30728.000      50.220
  88.2900         31126.000      50.309
  88.3900         31904.000      51.556
  88.4900         31898.000      51.643
  88.5900         32011.000      52.077
  88.6900         31800.000      51.517
  88.7900         31711.000      51.293
  88.8900         31314.000      50.912
  88.9900         30709.000      50.259
  89.0900         30548.000      50.140
  89.1900         30204.000      48.939
  89.2900         30057.000      50.715
  89.3900         29789.000      49.538
  89.4900         29571.000      49.406
  89.5900         29732.000      49.739
  89.6900         29890.000      49.729
  89.7900         29921.000      49.619
  89.8900         29903.000      50.587
  89.9900         29932.000      49.558
  90.0900         29694.000      49.265
  90.1900         29893.000      50.170
  90.2900         30004.000      49.890
  90.3900         30159.000      50.685
  90.4900         30633.000      49.940
  90.5900         30464.000      50.150
  90.6900         30512.000      50.498
  90.7900         30579.000      50.656
  90.8900         30570.000      50.110
  90.9900         30262.000      50.060
  91.0900         30023.000      50.190
  91.1900         30525.000      49.427
  91.2900         30481.000      50.160
  91.3900         30213.000      50.369
  91.4900         29860.000      49.010
  91.5900         30000.000      49.396
  91.6900         29575.000      48.867
  91.7900         29836.000      48.898
  91.8900         30273.000      50.666
  91.9900         29799.000      49.679
  92.0900         29830.000      50.170
  92.1900         29698.000      49.163
  92.2900         29300.000      49.437
  92.3900         29522.000      49.336
  92.4900         29467.000      49.830
  92.5900         29698.000      50.120
  92.6900         29675.000      49.850
  92.7900         29524.000      48.487
  92.8900         29598.000      49.508
  92.9900         30102.000      50.090
  93.0900         29988.000      49.749
  93.1900         29912.000      49.578
  93.2900         29744.000      50.408
  93.3900         29518.000      49.598
  93.4900         29479.000      49.890
  93.5900         29763.000      49.153
  93.6900         29586.000      50.269
  93.7900         29704.000      49.689
  93.8900         29537.000      50.140
  93.9900         29849.000      49.305
  94.0900         29923.000      49.518
  94.1900         29841.000      50.200
  94.2900         29643.000      50.249
  94.3900         29729.000      49.850
  94.4900         29631.000      48.703
  94.5900         29880.000      49.487
  94.6900         30004.000      50.289
  94.7900         29562.000      49.840
  94.8900         29568.000      49.890
  94.9900         29536.000      49.447
  95.0900         29683.000      50.040
  95.1900         29965.000      48.959
  95.2900         29805.000      50.090
  95.3900         29765.000      49.588
  95.4900         29796.000      49.719
  95.5900         30200.000      50.438
  95.6900         29781.000      50.070
  95.7900         30089.000      50.279
  95.8900         30090.000      50.428
  95.9900         30082.000      50.547
  96.0900         30237.000      49.719
  96.1900         30638.000      50.685
  96.2900         30572.000      50.299
  96.3900         30329.000      49.467
  96.4900         30516.000      49.629
  96.5900         30504.000      49.112
  96.6900         30370.000      49.790
  96.7900         29806.000      49.568
  96.8900         29698.000      50.120
  96.9900         29764.000      50.279
  97.0900         29571.000      49.204
  97.1900         29957.000      50.249
  97.2900         29416.000      49.538
  97.3900         29630.000      49.051
  97.4900         30191.000      49.588
  97.5900         29420.000      49.508
  97.6900         29555.000      49.102
  97.7900         29475.000      49.820
  97.8900         29641.000      50.150
  97.9900         29682.000      48.703
  98.0900         29635.000      48.683
  98.1900         29593.000      50.150
  98.2900         29714.000      49.860
  98.3900         29691.000      49.980
  98.4900         29701.000      49.639
  98.5900         30029.000      50.922
  98.6900         30026.000      50.289
  98.7900         30310.000      49.356
  98.8900         30245.000      49.910
  98.9900         30737.000      49.830
  99.0900         30788.000      50.725
  99.1900         31038.000      50.675
  99.2900         31571.000      51.293
  99.3900         32051.000      51.759
  99.4900         32931.000      51.691
  99.5900         33523.000      54.231
  99.6900         33308.000      52.421
  99.7900         33737.000      52.887
  99.8900         33453.000      52.134
  99.9900         33280.000      53.094
 100.0900         32318.000      51.923
 100.1900         32154.000      51.769
 100.2900         31522.000      50.438
 100.3900         31678.000      51.371
 100.4900         31218.000      49.669
 100.5900         30564.000      50.744
 100.6900         30100.000      49.960
 100.7900         30090.000      50.498
 100.8900         29743.000      49.447
 100.9900         29572.000      49.699
 101.0900         29662.000      50.309
 101.1900         29779.000      49.900
 101.2900         29525.000      49.639
 101.3900         29724.000      49.850
 101.4900         29633.000      49.538
 101.5900         29678.000      49.830
 101.6900         30250.000      49.820
 101.7900         29932.000      49.376
 101.8900         29733.000      49.790
 101.9900         29735.000      49.890
 102.0900         30130.000      50.971
 102.1900         29943.000      49.790
 102.2900         29772.000      49.447
 102.3900         30066.000      49.950
 102.4900         29828.000      49.183
 102.5900         29592.000      49.336
 102.6900         29407.000      50.090
 102.7900         29344.000      50.150
 102.8900         29426.000      48.765
 102.9900         29497.000      49.132
 103.0900         29564.000      49.578
 103.1900         29460.000      49.749
 103.2900         29893.000      50.438
 103.3900         29181.000      49.659
 103.4900         29603.000      49.699
 103.5900         29803.000      50.359
 103.6900         29477.000      49.031
 103.7900         29406.000      49.406
 103.8900         29618.000      49.759
 103.9900         29325.000      49.325
 104.0900         29625.000      49.427
 104.1900         29441.000      49.417
 104.2900         29222.000      49.183
 104.3900         29785.000      49.041
 104.4900         29729.000      50.040
 104.5900         29535.000      49.295
 104.6900         29434.000      50.110
 104.7900         29432.000      50.080
 104.8900         29750.000      49.518
 104.9900         29597.000      49.699
 105.0900         29463.000      49.204
 105.1900         29693.000      48.939
 105.2900         29427.000      48.888
 105.3900         29261.000      49.061
 105.4900         29821.000      49.689
 105.5900         29944.000      49.071
 105.6900         29872.000      48.908
 105.7900         29897.000      49.528
 105.8900         29917.000      49.608
 105.9900         29980.000      50.398
 106.0900         29873.000      49.900
 106.1900         30206.000      50.398
 106.2900         30281.000      50.220
 106.3900         30601.000      50.863
 106.4900         31335.000      51.575
 106.5900         32248.000      51.807
 106.6900         33821.000      53.188
 106.7900         35867.000      54.452
 106.8900         38016.000      55.669
 106.9900         40103.000      57.541
 107.0900         42468.000      59.983
 107.1900         46065.000      61.319
 107.2900         48471.000      63.679
 107.3900         52759.000      65.992
 107.4900         56592.000      67.779
 107.5900         59406.000      70.527
 107.6900         64026.000      73.062
 107.7900         68421.000      76.171
 107.8900         73140.000      77.929
 107.9900         76977.000      79.862
 108.0900         79353.000      82.395
 108.1900         80911.000      81.658
 108.2900         81514.000      83.120
 108.3900         81602.000      81.780
 108.4900         80930.000      81.786
 108.5900         78624.000      81.031
 108.6900         75698.000      79.095
 108.7900         70472.000      75.723
 108.8900         64654.000      72.705
 108.9900         59999.000      70.193
 109.0900         57305.000      68.396
 109.1900         53928.000      66.415
 109.2900         51600.000      65.100
 109.3900         47387.000      62.145
 109.4900         43408.000      59.557
 109.5900         39861.000      57.297
 109.6900         37486.000      55.009
 109.7900         35025.000      53.507
 109.8900         33286.000      53.263
 109.9900         32116.000      51.952
 110.0900         31566.000      51.039
 110.1900         30980.000      50.150
 110.2900         30695.000      51.010
 110.3900         29833.000      49.457
 110.4900         30063.000      49.749
 110.5900         29813.000      49.780
 110.6900         29684.000      49.780
 110.7900         29566.000      49.457
 110.8900         29636.000      50.259
 110.9900         29557.000      49.061
 111.0900         29540.000      49.780
 111.1900         29499.000      49.315
 111.2900         29453.000      49.051
 111.3900         29637.000      50.675
 111.4900         29450.000      48.795
 111.5900         29310.000      49.548
 111.6900         29291.000      48.795
 111.7900         29467.000      49.940
 111.8900         29717.000      49.508
 111.9900         29442.000      49.265
 112.0900         29461.000      50.339
 112.1900         29278.000      48.990
 112.2900         29796.000      49.031
 112.3900         29646.000      49.406
 112.4900         29712.000      49.780
 112.5900         29681.000      50.239
 112.6900         29557.000      48.477
 112.7900         29804.000      49.132
 112.8900         30087.000      49.325
 112.9900         29863.000      49.608
 113.0900         29899.000      49.669
 113.1900         30094.000      50.090
 113.2900         29862.000      50.259
 113.3900         30121.000      48.826
 113.4900         30090.000      49.649
 113.5900         29735.000      50.140
 113.6900         30025.000      49.669
 113.7900         30107.000      50.438
 113.8900         29784.000      49.457
 113.9900         29743.000      50.498
 114.0900         29816.000      49.649
 114.1900         30005.000      48.980
 114.2900         29613.000      49.457
 114.3900         29326.000      48.703
 114.4900         29579.000      50.010
 114.5900         29711.000      49.940
 114.6900         29663.000      49.679
 114.7900         29151.000      49.305
 114.8900         29302.000      49.467
 114.9900         29172.000      48.218
 115.0900         29094.000      48.518
 115.1900         29324.000      49.960
 115.2900         29252.000      50.408
 115.3900         29110.000      49.487
 115.4900         29200.000      49.102
 115.5900         28756.000      49.132
 115.6900         29089.000      48.939
 115.7900         28769.000      49.780
 115.8900         28954.000      48.990
 115.9900         28898.000      49.031
 116.0900         29252.000      49.376
 116.1900         29157.000      49.132
 116.2900         29054.000      48.073
 116.3900         29057.000      48.497
 116.4900         28905.000      50.428
 116.5900         29041.000      48.836
 116.6900         28883.000      49.020
 116.7900         29139.000      49.366
 116.8900         28893.000      48.539
 116.9900         28909.000      48.785
 117.0900         28928.000      48.929
 117.1900         28709.000      49.000
 117.2900         29183.000      48.785
 117.3900         29109.000      48.980
 117.4900         28769.000      49.183
 117.5900         28763.000      49.163
 117.6900         29092.000      49.830
 117.7900         29262.000      49.940
 117.8900         28908.000      49.153
 117.9900         29151.000      48.549
 118.0900         28671.000      48.867
 118.1900         28598.000      48.929
 118.2900         28868.000      48.456
 118.3900         29040.000      49.061
 118.4900         28832.000      49.224
 118.5900         28872.000      48.795
 118.6900         29286.000      49.950
 118.7900         29014.000      48.198
 118.8900         28800.000      48.425
 118.9900         29039.000      49.224
 119.0900         28829.000      48.939
 119.1900         29012.000      49.790
 119.2900         29226.000      48.939
 119.3900         29073.000      49.689
 119.4900         29177.000      49.457
 119.5900         29429.000      49.497
 119.6900         29146.000      49.112
 119.7900         28967.000      48.857
 119.8900         29123.000      49.619
 119.9900         29183.000      49.497
 120.0900         29138.000      49.588
 120.1900         29210.000      49.386
 120.2900         29343.000      49.508
 120.3900         29481.000      48.836
 120.4900         29514.000      48.980
 120.5900         29465.000      49.173
 120.6900         29233.000      50.080
 120.7900         29475.000      49.092
 120.8900         29799.000      49.518
 120.9900         29642.000      50.229
 121.0900         30470.000      50.269
 121.1900         30884.000      50.715
 121.2900         31693.000      49.840
 121.3900         33122.000      53.085
 121.4900         34748.000      54.635
 121.5900         37466.000      56.436
 121.6900         39793.000      57.480
 121.7900         42633.000      59.523
 121.8900         45759.000      62.434
 121.9900         49720.000      64.668
 122.0900         53601.000      66.265
 122.1900         57616.000      70.392
 122.2900         60836.000      71.063
 122.3900         65609.000      73.736
 122.4900         70661.000      76.668
 122.5900         77951.000      81.517
 122.6900         84203.000      84.018
 122.7900         90543.000      86.943
 122.8900         96887.000      89.655
 122.9900        103100.000      92.984
 123.0900        109246.000      95.588
 123.1900        116834.000      98.270
 123.2900        125213.000     102.313
 123.3900        132266.000     104.024
 123.4900        138694.000     107.233
 123.5900        143353.000     109.750
 123.6900        146772.000     109.608
 123.7900        148903.000     110.182
 123.8900        150187.000     112.031
 123.9900        151057.000     112.031
 124.0900        149162.000     110.689
 124.1900        148160.000     110.159
 124.2900        144628.000     108.945
 124.3900        138711.000     107.271
 124.4900        131834.000     103.913
 124.5900        123111.000     100.399
 124.6900        112151.000      95.937
 124.7900        103311.000      92.731
 124.8900         95789.000      88.809
 124.9900         92145.000      87.178
 125.0900         88960.000      86.029
 125.1900         84338.000      83.570
 125.2900         78188.000      80.250
 125.3900         72092.000      77.201
 125.4900         65077.000      74.054
 125.5900         58636.000      69.599
 125.6900         53078.000      65.284
 125.7900         48769.000      64.397
 125.8900         45208.000      61.205
 125.9900         41621.000      59.093
 126.0900         38982.000      56.436
 126.1900         37210.000      55.399
 126.2900         35540.000      53.675
 126.3900         34330.000      53.879
 126.4900         34096.000      53.066
 126.5900         32779.000      52.924
 126.6900         32628.000      52.555
 126.7900         31970.000      50.705
 126.8900         31472.000      51.010
 126.9900         30897.000      50.646
 127.0900         30518.000      49.880
 127.1900         30186.000      50.349
 127.2900         30288.000      50.735
 127.3900         29712.000      49.183
 127.4900         29775.000      49.759
 127.5900         29641.000      49.990
 127.6900         29317.000      49.578
 127.7900         28779.000      48.311
 127.8900         29126.000      48.816
 127.9900         28973.000      48.508
 128.0900         28930.000      49.689
 128.1900         28512.000      48.867
 128.2900         28284.000      48.291
 128.3900         28734.000      48.436
 128.4900         28724.000      49.132
 128.5900             7.000       1.732
 128.6900             8.000       1.000
