XYDATA SparksLave Co-quenched_850_300K 
INTER        1       1       0     0.100000
TEMP       297.707      300.382      300.000
! d1b Date 15-Nov-11 Time 16:10:47 Run 130057 130046>130057
! d1b Date 15-Nov-11 Time 16:10:47 Run 130057 130046>130057
! Monitor/counts, Counting time/sec:  1.08645e+007 1.08645e+007
   0.7900             6.000       1.000
   0.8900             3.000       1.000
   0.9900          2291.000      14.142
   1.0900          2241.000      12.610
   1.1900          2220.000      13.638
   1.2900          2175.000      13.964
   1.3900          2249.000      13.565
   1.4900          2278.000      13.964
   1.5900          2383.000      13.601
   1.6900          2296.000      13.964
   1.7900          2936.000      16.125
   1.8900          4267.000      19.416
   1.9900          6742.000      23.152
   2.0900          9179.000      28.054
   2.1900         11226.000      30.643
   2.2900         14494.000      34.843
   2.3900         17732.000      38.406
   2.4900         21860.000      42.650
   2.5900         25780.000      46.573
   2.6900         29073.000      49.325
   2.7900         32210.000      52.000
   2.8900         34950.000      53.759
   2.9900         37804.000      55.749
   3.0900         40960.000      57.940
   3.1900         43234.000      59.195
   3.2900         45036.000      60.498
   3.3900         45460.000      62.209
   3.4900         45182.000      61.335
   3.5900         44798.000      60.572
   3.6900         44088.000      60.308
   3.7900         43476.000      59.127
   3.8900         43340.000      58.856
   3.9900         42517.000      59.983
   4.0900         43061.000      60.770
   4.1900         42869.000      59.975
   4.2900         42892.000      59.883
   4.3900         43692.000      60.033
   4.4900         43807.000      60.158
   4.5900         45160.000      61.335
   4.6900         47037.000      63.340
   4.7900         49418.000      63.851
   4.8900         51161.000      64.885
   4.9900         53362.000      66.880
   5.0900         56364.000      68.644
   5.1900         58633.000      69.649
   5.2900         60744.000      71.337
   5.3900         64329.000      73.164
   5.4900         66438.000      75.286
   5.5900         68663.000      75.604
   5.6900         71390.000      77.084
   5.7900         74093.000      78.696
   5.8900         76761.000      81.080
   5.9900         78401.000      80.579
   6.0900         80203.000      81.792
   6.1900         81384.000      81.786
   6.2900         81378.000      82.686
   6.3900         81113.000      82.201
   6.4900         81515.000      82.456
   6.5900         80926.000      81.498
   6.6900         80691.000      82.426
   6.7900         80577.000      82.589
   6.8900         80014.000      82.219
   6.9900         79410.000      81.695
   7.0900         78867.000      82.043
   7.1900         78137.000      80.529
   7.2900         77790.000      81.049
   7.3900         76879.000      80.920
   7.4900         76195.000      80.131
   7.5900         75708.000      78.791
   7.6900         74626.000      79.158
   7.7900         73652.000      78.924
   7.8900         73057.000      78.987
   7.9900         72036.000      77.531
   8.0900         71173.000      77.602
   8.1900         70673.000      77.227
   8.2900         69964.000      76.929
   8.3900         69337.000      76.276
   8.4900         67840.000      75.472
   8.5900         67878.000      74.873
   8.6900         66599.000      74.283
   8.7900         66214.000      73.885
   8.8900         65221.000      74.236
   8.9900         64530.000      73.369
   9.0900         63421.000      73.048
   9.1900         62964.000      72.374
   9.2900         61946.000      71.099
   9.3900         60676.000      71.582
   9.4900         60794.000      70.654
   9.5900         59586.000      70.150
   9.6900         58007.000      69.043
   9.7900         57882.000      70.007
   9.8900         57165.000      69.014
   9.9900         56254.000      68.862
  10.0900         55522.000      68.228
  10.1900         54900.000      67.535
  10.2900         53961.000      66.656
  10.3900         52901.000      66.332
  10.4900         52350.000      67.786
  10.5900         51869.000      65.818
  10.6900         51639.000      65.795
  10.7900         51266.000      65.184
  10.8900         50866.000      64.946
  10.9900         49750.000      63.671
  11.0900         49962.000      64.614
  11.1900         49233.000      63.953
  11.2900         49803.000      64.738
  11.3900         49556.000      63.859
  11.4900         49919.000      64.444
  11.5900         49589.000      64.823
  11.6900         49568.000      63.789
  11.7900         49452.000      64.676
  11.8900         49338.000      64.645
  11.9900         49543.000      65.643
  12.0900         49394.000      64.637
  12.1900         49364.000      63.718
  12.2900         49198.000      64.692
  12.3900         49540.000      64.645
  12.4900         49058.000      64.343
  12.5900         49344.000      64.800
  12.6900         49176.000      63.859
  12.7900         49277.000      64.366
  12.8900         49009.000      63.867
  12.9900         48853.000      65.077
  13.0900         49007.000      64.296
  13.1900         48796.000      64.327
  13.2900         49214.000      63.765
  13.3900         49225.000      64.838
  13.4900         49005.000      63.569
  13.5900         48999.000      64.327
  13.6900         49493.000      63.498
  13.7900         48969.000      63.498
  13.8900         49451.000      64.382
  13.9900         48925.000      64.257
  14.0900         49126.000      64.125
  14.1900         49152.000      64.117
  14.2900         49046.000      64.514
  14.3900         48913.000      65.276
  14.4900         48830.000      64.094
  14.5900         49115.000      64.591
  14.6900         48843.000      63.914
  14.7900         48995.000      64.335
  14.8900         48858.000      63.930
  14.9900         48975.000      64.055
  15.0900         49381.000      64.707
  15.1900         49181.000      62.841
  15.2900         50367.000      65.069
  15.3900         50629.000      66.302
  15.4900         50620.000      65.046
  15.5900         50170.000      64.753
  15.6900         49421.000      64.281
  15.7900         49040.000      64.366
  15.8900         48705.000      63.317
  15.9900         48583.000      63.340
  16.0900         48784.000      64.784
  16.1900         48913.000      63.459
  16.2900         49097.000      63.773
  16.3900         49060.000      64.327
  16.4900         49138.000      63.585
  16.5900         49085.000      64.320
  16.6900         48728.000      63.261
  16.7900         49062.000      63.781
  16.8900         48873.000      63.514
  16.9900         48979.000      64.304
  17.0900         48685.000      64.521
  17.1900         48999.000      64.288
  17.2900         48966.000      63.992
  17.3900         48985.000      63.411
  17.4900         49317.000      65.391
  17.5900         48951.000      64.304
  17.6900         48982.000      64.164
  17.7900         49703.000      64.366
  17.8900         48901.000      63.828
  17.9900         49424.000      63.961
  18.0900         48852.000      64.358
  18.1900         49123.000      64.420
  18.2900         49047.000      64.622
  18.3900         48865.000      63.906
  18.4900         48894.000      64.885
  18.5900         48715.000      63.655
  18.6900         49011.000      64.187
  18.7900         49207.000      64.389
  18.8900         48674.000      64.296
  18.9900         49146.000      64.133
  19.0900         48462.000      63.396
  19.1900         48846.000      63.530
  19.2900         48780.000      63.427
  19.3900         48481.000      63.530
  19.4900         48748.000      63.836
  19.5900         49070.000      63.655
  19.6900         48841.000      63.624
  19.7900         48824.000      63.687
  19.8900         48945.000      64.226
  19.9900         48690.000      63.906
  20.0900         49208.000      64.133
  20.1900         49465.000      63.977
  20.2900         48996.000      63.285
  20.3900         49256.000      63.867
  20.4900         48821.000      64.428
  20.5900         49248.000      63.844
  20.6900         49271.000      63.969
  20.7900         49196.000      64.428
  20.8900         49288.000      63.836
  20.9900         48690.000      64.800
  21.0900         48894.000      64.179
  21.1900         49200.000      63.545
  21.2900         48792.000      64.614
  21.3900         49142.000      63.702
  21.4900         49066.000      64.039
  21.5900         48846.000      63.071
  21.6900         48576.000      64.746
  21.7900         48798.000      63.506
  21.8900         48863.000      64.288
  21.9900         48875.000      64.047
  22.0900         48659.000      63.545
  22.1900         48977.000      63.671
  22.2900         48657.000      63.403
  22.3900         48561.000      63.246
  22.4900         49166.000      64.125
  22.5900         48571.000      63.883
  22.6900         49130.000      64.047
  22.7900         48767.000      64.094
  22.8900         48656.000      64.211
  22.9900         48798.000      63.577
  23.0900         48758.000      64.203
  23.1900         48382.000      63.773
  23.2900         48740.000      63.930
  23.3900         48803.000      63.348
  23.4900         48976.000      64.327
  23.5900         48974.000      64.265
  23.6900         48504.000      64.187
  23.7900         49101.000      64.148
  23.8900         49673.000      63.608
  23.9900         50240.000      64.823
  24.0900         49005.000      64.226
  24.1900         49275.000      64.320
  24.2900         48682.000      64.428
  24.3900         48622.000      63.040
  24.4900         48700.000      64.047
  24.5900         49472.000      63.953
  24.6900         48825.000      63.695
  24.7900         49565.000      64.560
  24.8900         49076.000      63.828
  24.9900         48690.000      63.569
  25.0900         48735.000      64.630
  25.1900         48656.000      64.304
  25.2900         49156.000      63.608
  25.3900         49773.000      64.606
  25.4900         49366.000      63.953
  25.5900         49376.000      64.374
  25.6900         49136.000      64.172
  25.7900         48967.000      64.273
  25.8900         49082.000      63.655
  25.9900         49068.000      63.906
  26.0900         49195.000      64.226
  26.1900         49315.000      64.699
  26.2900         48794.000      64.661
  26.3900         48525.000      65.046
  26.4900         48860.000      64.257
  26.5900         49140.000      63.812
  26.6900         48891.000      64.684
  26.7900         48665.000      64.218
  26.8900         48623.000      63.679
  26.9900         49145.000      64.444
  27.0900         49037.000      64.389
  27.1900         48830.000      64.187
  27.2900         48946.000      64.846
  27.3900         49056.000      64.000
  27.4900         49454.000      64.055
  27.5900         48619.000      63.206
  27.6900         49133.000      63.624
  27.7900         49090.000      64.444
  27.8900         49054.000      64.320
  27.9900         48715.000      64.335
  28.0900         48795.000      63.071
  28.1900         48812.000      63.143
  28.2900         48821.000      64.428
  28.3900         48968.000      64.008
  28.4900         49420.000      63.969
  28.5900         49255.000      64.854
  28.6900         48775.000      63.953
  28.7900         49068.000      63.388
  28.8900         48692.000      63.340
  28.9900         49102.000      64.877
  29.0900         48911.000      63.640
  29.1900         49197.000      64.838
  29.2900         49161.000      63.844
  29.3900         49353.000      63.773
  29.4900         49256.000      65.092
  29.5900         49408.000      64.730
  29.6900         49511.000      63.804
  29.7900         49488.000      64.195
  29.8900         50161.000      64.521
  29.9900         50411.000      64.645
  30.0900         49729.000      64.606
  30.1900         49400.000      64.738
  30.2900         49320.000      63.403
  30.3900         49375.000      64.715
  30.4900         49794.000      64.475
  30.5900         49828.000      65.605
  30.6900         49640.000      64.969
  30.7900         50536.000      65.544
  30.8900         51334.000      65.521
  30.9900         56715.000      69.138
  31.0900         69776.000      76.596
  31.1900         90636.000      86.157
  31.2900        105460.000      92.644
  31.3900        100427.000      92.304
  31.4900         80851.000      82.873
  31.5900         61591.000      72.284
  31.6900         52809.000      66.558
  31.7900         50483.000      65.054
  31.8900         49838.000      64.312
  31.9900         49395.000      64.226
  32.0900         49910.000      63.969
  32.1900         49467.000      64.908
  32.2900         49412.000      64.179
  32.3900         49217.000      63.859
  32.4900         49141.000      64.094
  32.5900         48933.000      64.312
  32.6900         49480.000      64.218
  32.7900         48928.000      64.203
  32.8900         49062.000      63.679
  32.9900         48988.000      64.428
  33.0900         49128.000      63.616
  33.1900         49093.000      63.396
  33.2900         48821.000      64.452
  33.3900         49123.000      63.859
  33.4900         49179.000      63.671
  33.5900         49528.000      63.836
  33.6900         49403.000      64.428
  33.7900         49244.000      63.530
  33.8900         48882.000      63.506
  33.9900         49335.000      64.179
  34.0900         49771.000      64.281
  34.1900         50003.000      65.054
  34.2900         49834.000      64.467
  34.3900         49758.000      65.452
  34.4900         49295.000      63.718
  34.5900         49446.000      64.622
  34.6900         48818.000      63.285
  34.7900         49230.000      64.366
  34.8900         49091.000      63.624
  34.9900         48823.000      63.419
  35.0900         48660.000      63.789
  35.1900         48866.000      63.695
  35.2900         49018.000      64.008
  35.3900         48869.000      63.875
  35.4900         49021.000      64.078
  35.5900         49025.000      63.569
  35.6900         48803.000      63.490
  35.7900         48480.000      63.301
  35.8900         48873.000      63.537
  35.9900         48745.000      63.459
  36.0900         50085.000      65.100
  36.1900         54529.000      66.768
  36.2900         58387.000      69.620
  36.3900         58798.000      70.619
  36.4900         53993.000      67.912
  36.5900         50196.000      64.985
  36.6900         48619.000      63.490
  36.7900         48914.000      63.734
  36.8900         48575.000      64.707
  36.9900         49060.000      63.490
  37.0900         48589.000      62.976
  37.1900         48662.000      63.992
  37.2900         48455.000      63.742
  37.3900         48753.000      63.301
  37.4900         48689.000      64.459
  37.5900         48598.000      64.062
  37.6900         48154.000      63.135
  37.7900         48333.000      63.277
  37.8900         48379.000      64.351
  37.9900         48698.000      64.382
  38.0900         48764.000      63.859
  38.1900         48439.000      64.125
  38.2900         48706.000      64.156
  38.3900         48245.000      62.873
  38.4900         48437.000      63.616
  38.5900         48404.000      63.325
  38.6900         48617.000      63.647
  38.7900         48658.000      63.953
  38.8900         48686.000      64.483
  38.9900         48130.000      62.522
  39.0900         48296.000      63.151
  39.1900         47854.000      63.364
  39.2900         48257.000      64.055
  39.3900         48624.000      64.016
  39.4900         48096.000      63.608
  39.5900         48765.000      63.679
  39.6900         49143.000      65.238
  39.7900         48859.000      63.411
  39.8900         48782.000      63.467
  39.9900         48456.000      63.214
  40.0900         48334.000      64.031
  40.1900         48549.000      63.718
  40.2900         48655.000      63.883
  40.3900         48459.000      64.366
  40.4900         48282.000      63.883
  40.5900         47980.000      63.143
  40.6900         48152.000      63.859
  40.7900         48101.000      63.914
  40.8900         47950.000      63.309
  40.9900         48071.000      62.761
  41.0900         47770.000      63.348
  41.1900         48213.000      63.984
  41.2900         48158.000      63.883
  41.3900         48226.000      63.977
  41.4900         47903.000      63.726
  41.5900         47838.000      62.976
  41.6900         48523.000      64.281
  41.7900         48069.000      62.714
  41.8900         48081.000      64.047
  41.9900         48079.000      62.761
  42.0900         47652.000      62.650
  42.1900         48114.000      63.616
  42.2900         47832.000      63.474
  42.3900         48200.000      63.206
  42.4900         47939.000      62.706
  42.5900         47701.000      63.530
  42.6900         47607.000      63.016
  42.7900         47767.000      63.317
  42.8900         48105.000      62.825
  42.9900         48275.000      63.695
  43.0900         47669.000      62.897
  43.1900         47977.000      62.546
  43.2900         47593.000      63.063
  43.3900         47823.000      64.195
  43.4900         47833.000      63.403
  43.5900         47615.000      63.198
  43.6900         47652.000      63.103
  43.7900         47751.000      62.730
  43.8900         46815.000      62.817
  43.9900         47820.000      63.040
  44.0900         47703.000      62.642
  44.1900         47668.000      63.214
  44.2900         47791.000      62.793
  44.3900         47523.000      63.726
  44.4900         47668.000      63.773
  44.5900         47729.000      62.865
  44.6900         47997.000      63.883
  44.7900         48151.000      63.119
  44.8900         47761.000      62.817
  44.9900         47910.000      63.396
  45.0900         47438.000      62.785
  45.1900         47836.000      63.222
  45.2900         47540.000      62.466
  45.3900         47561.000      64.374
  45.4900         47934.000      62.514
  45.5900         47730.000      63.372
  45.6900         47720.000      63.190
  45.7900         47756.000      62.841
  45.8900         47597.000      62.040
  45.9900         48057.000      62.889
  46.0900         47628.000      62.809
  46.1900         47978.000      63.095
  46.2900         47808.000      62.506
  46.3900         47487.000      62.921
  46.4900         47903.000      61.855
  46.5900         47703.000      63.851
  46.6900         47479.000      63.553
  46.7900         47852.000      63.750
  46.8900         47559.000      63.253
  46.9900         47681.000      64.366
  47.0900         47674.000      63.056
  47.1900         47659.000      62.960
  47.2900         47984.000      63.332
  47.3900         47640.000      63.214
  47.4900         48097.000      63.506
  47.5900         48891.000      63.380
  47.6900         50717.000      64.475
  47.7900         51829.000      65.848
  47.8900         51537.000      65.406
  47.9900         50086.000      64.676
  48.0900         48485.000      64.366
  48.1900         47561.000      62.266
  48.2900         47897.000      63.671
  48.3900         47553.000      63.569
  48.4900         47740.000      62.817
  48.5900         47381.000      62.434
  48.6900         47426.000      63.388
  48.7900         47808.000      64.039
  48.8900         47615.000      63.883
  48.9900         47664.000      62.570
  49.0900         48059.000      63.071
  49.1900         47742.000      63.969
  49.2900         47562.000      62.690
  49.3900         47801.000      63.506
  49.4900         47769.000      63.317
  49.5900         47512.000      63.277
  49.6900         47990.000      63.435
  49.7900         48202.000      63.261
  49.8900         47792.000      63.632
  49.9900         47761.000      63.048
  50.0900         47054.000      63.111
  50.1900         47585.000      62.921
  50.2900         47866.000      64.078
  50.3900         47902.000      63.585
  50.4900         47496.000      63.812
  50.5900         47319.000      62.944
  50.6900         47609.000      63.585
  50.7900         47497.000      62.522
  50.8900         47278.000      62.610
  50.9900         47854.000      62.578
  51.0900         47874.000      63.206
  51.1900         47256.000      62.024
  51.2900         47366.000      63.253
  51.3900         47011.000      62.833
  51.4900         47923.000      63.253
  51.5900         47721.000      62.378
  51.6900         47733.000      62.618
  51.7900         48670.000      63.325
  51.8900         49829.000      64.707
  51.9900         52301.000      68.022
  52.0900         56711.000      68.403
  52.1900         64262.000      74.209
  52.2900         71670.000      77.537
  52.3900         72234.000      78.038
  52.4900         68604.000      75.571
  52.5900         62262.000      71.694
  52.6900         54723.000      67.941
  52.7900         50242.000      65.046
  52.8900         48589.000      63.710
  52.9900         47491.000      63.506
  53.0900         47800.000      62.785
  53.1900         47628.000      63.569
  53.2900         47230.000      63.238
  53.3900         47354.000      63.056
  53.4900         47190.000      63.459
  53.5900         47878.000      63.616
  53.6900         47520.000      63.016
  53.7900         47600.000      63.388
  53.8900         47258.000      63.214
  53.9900         47470.000      63.309
  54.0900         47482.000      63.482
  54.1900         47143.000      63.356
  54.2900         47519.000      62.538
  54.3900         47517.000      62.714
  54.4900         47738.000      63.984
  54.5900         47333.000      62.746
  54.6900         47256.000      62.674
  54.7900         47681.000      62.976
  54.8900         48085.000      63.277
  54.9900         47620.000      63.804
  55.0900         48062.000      63.340
  55.1900         47519.000      63.079
  55.2900         47609.000      62.785
  55.3900         47801.000      63.340
  55.4900         47361.000      62.217
  55.5900         47333.000      63.151
  55.6900         47213.000      63.071
  55.7900         47572.000      64.125
  55.8900         47474.000      63.103
  55.9900         47322.000      63.498
  56.0900         47406.000      62.690
  56.1900         47096.000      62.570
  56.2900         47169.000      63.969
  56.3900         47032.000      62.881
  56.4900         46948.000      62.833
  56.5900         47215.000      63.317
  56.6900         47125.000      62.929
  56.7900         47320.000      62.968
  56.8900         47095.000      62.370
  56.9900         47094.000      62.394
  57.0900         47110.000      62.554
  57.1900         47397.000      62.968
  57.2900         46930.000      62.000
  57.3900         46986.000      62.458
  57.4900         46891.000      62.968
  57.5900         47010.000      62.538
  57.6900         46671.000      62.698
  57.7900         47039.000      63.000
  57.8900         47669.000      63.498
  57.9900         47278.000      63.261
  58.0900         47113.000      63.261
  58.1900         47244.000      62.434
  58.2900         46882.000      63.151
  58.3900         47287.000      62.921
  58.4900         47282.000      62.889
  58.5900         47000.000      62.185
  58.6900         46884.000      62.177
  58.7900         47281.000      62.370
  58.8900         47557.000      63.482
  58.9900         47067.000      63.340
  59.0900         47059.000      62.626
  59.1900         47411.000      62.546
  59.2900         47297.000      63.640
  59.3900         47161.000      62.873
  59.4900         47243.000      62.546
  59.5900         47449.000      62.960
  59.6900         46968.000      63.467
  59.7900         47321.000      62.650
  59.8900         47006.000      62.929
  59.9900         47230.000      63.238
  60.0900         47383.000      63.867
  60.1900         47077.000      62.841
  60.2900         47004.000      63.332
  60.3900         46757.000      62.370
  60.4900         47190.000      63.151
  60.5900         47111.000      63.325
  60.6900         47387.000      62.610
  60.7900         46983.000      63.198
  60.8900         47542.000      62.298
  60.9900         46749.000      63.095
  61.0900         47592.000      62.817
  61.1900         47579.000      63.380
  61.2900         47649.000      63.198
  61.3900         47881.000      62.578
  61.4900         48013.000      64.000
  61.5900         48321.000      63.332
  61.6900         49415.000      64.630
  61.7900         51885.000      67.119
  61.8900         54024.000      68.140
  61.9900         56937.000      69.361
  62.0900         61835.000      72.339
  62.1900         66428.000      74.182
  62.2900         68841.000      74.947
  62.3900         67325.000      75.525
  62.4900         65082.000      74.135
  62.5900         61080.000      70.725
  62.6900         57016.000      69.304
  62.7900         52484.000      66.588
  62.8900         49450.000      65.223
  62.9900         48002.000      63.095
  63.0900         47745.000      62.881
  63.1900         47047.000      63.159
  63.2900         47124.000      63.048
  63.3900         46665.000      62.698
  63.4900         47125.000      62.865
  63.5900         47343.000      63.340
  63.6900         46993.000      62.618
  63.7900         46873.000      62.777
  63.8900         47009.000      62.290
  63.9900         47202.000      62.121
  64.0900         47228.000      64.031
  64.1900         47283.000      62.666
  64.2900         47803.000      63.000
  64.3900         48262.000      64.351
  64.4900         48874.000      63.143
  64.5900         51991.000      66.302
  64.6900         57910.000      69.195
  64.7900         70546.000      77.602
  64.8900         88202.000      86.017
  64.9900        108323.000      95.032
  65.0900        130908.000     105.371
  65.1900        161773.000     116.108
  65.2900        191827.000     125.964
  65.3900        201634.000     129.372
  65.4900        194760.000     126.606
  65.5900        180113.000     122.020
  65.6900        158686.000     115.313
  65.7900        132230.000     104.919
  65.8900         99381.000      90.449
  65.9900         73890.000      79.013
  66.0900         59971.000      70.697
  66.1900         53622.000      67.350
  66.2900         50510.000      64.861
  66.3900         48036.000      63.647
  66.4900         47586.000      63.024
  66.5900         47047.000      62.960
  66.6900         47183.000      63.127
  66.7900         46624.000      61.612
  66.8900         46411.000      62.602
  66.9900         46588.000      62.881
  67.0900         46131.000      62.193
  67.1900         46217.000      62.161
  67.2900         46097.000      62.650
  67.3900         46778.000      61.919
  67.4900         46633.000      62.217
  67.5900         47394.000      63.977
  67.6900         47767.000      62.913
  67.7900         46991.000      62.490
  67.8900         47415.000      62.530
  67.9900         47137.000      62.658
  68.0900         46003.000      63.048
  68.1900         45511.000      61.701
  68.2900         45252.000      61.049
  68.3900         45421.000      62.258
  68.4900         45487.000      61.887
  68.5900         45560.000      61.968
  68.6900         45454.000      61.628
  68.7900         45335.000      62.209
  68.8900         45302.000      61.814
  68.9900         45057.000      60.745
  69.0900         45442.000      62.073
  69.1900         45139.000      60.506
  69.2900         45210.000      62.936
  69.3900         45024.000      60.548
  69.4900         45148.000      62.016
  69.5900         45135.000      62.153
  69.6900         44934.000      62.000
  69.7900         45012.000      61.392
  69.8900         45225.000      61.147
  69.9900         45323.000      61.814
  70.0900         44814.000      61.408
  70.1900         45130.000      61.090
  70.2900         45211.000      62.761
  70.3900         45440.000      61.774
  70.4900         45228.000      61.733
  70.5900         44994.000      61.668
  70.6900         44832.000      61.303
  70.7900         44868.000      61.196
  70.8900         44661.000      60.696
  70.9900         45265.000      61.392
  71.0900         45138.000      61.033
  71.1900         45326.000      61.433
  71.2900         45992.000      62.322
  71.3900         46207.000      62.217
  71.4900         46677.000      62.570
  71.5900         47684.000      62.298
  71.6900         47872.000      63.930
  71.7900         48654.000      64.062
  71.8900         48331.000      63.883
  71.9900         48553.000      63.867
  72.0900         48706.000      63.687
  72.1900         48650.000      64.327
  72.2900         48497.000      64.094
  72.3900         47773.000      63.961
  72.4900         47074.000      62.833
  72.5900         46825.000      62.793
  72.6900         46450.000      63.214
  72.7900         46483.000      62.666
  72.8900         45923.000      62.097
  72.9900         45626.000      62.658
  73.0900         45429.000      61.408
  73.1900         45195.000      61.147
  73.2900         44953.000      60.754
  73.3900         45310.000      61.311
  73.4900         45515.000      61.498
  73.5900         46013.000      62.113
  73.6900         45890.000      62.089
  73.7900         45770.000      62.040
  73.8900         45441.000      62.177
  73.9900         45296.000      61.547
  74.0900         44765.000      61.612
  74.1900         45150.000      61.360
  74.2900         44705.000      61.090
  74.3900         44560.000      61.408
  74.4900         44387.000      60.819
  74.5900         44606.000      60.918
  74.6900         44490.000      60.893
  74.7900         44540.000      61.303
  74.8900         44579.000      61.106
  74.9900         44622.000      61.384
  75.0900         44577.000      61.425
  75.1900         44065.000      60.902
  75.2900         44565.000      61.180
  75.3900         44277.000      60.316
  75.4900         44581.000      61.887
  75.5900         45154.000      61.992
  75.6900         44886.000      60.597
  75.7900         44611.000      61.368
  75.8900         45329.000      62.000
  75.9900         45605.000      61.693
  76.0900         46522.000      62.370
  76.1900         48936.000      63.797
  76.2900         53965.000      67.845
  76.3900         62851.000      73.560
  76.4900         73594.000      78.683
  76.5900         87780.000      85.522
  76.6900        104460.000      93.413
  76.7900        120697.000     100.906
  76.8900        140540.000     108.614
  76.9900        166965.000     118.368
  77.0900        185794.000     124.310
  77.1900        192185.000     126.471
  77.2900        188275.000     124.507
  77.3900        179508.000     122.176
  77.4900        162405.000     116.927
  77.5900        142437.000     107.842
  77.6900        124074.000     101.548
  77.7900        101846.000      91.652
  77.8900         80164.000      81.866
  77.9900         64307.000      73.526
  78.0900         54920.000      67.757
  78.1900         51162.000      65.399
  78.2900         48250.000      64.101
  78.3900         46476.000      61.082
  78.4900         45596.000      62.506
  78.5900         44816.000      60.638
  78.6900         44510.000      60.696
  78.7900         44590.000      61.555
  78.8900         43927.000      61.098
  78.9900         44177.000      59.791
  79.0900         43809.000      60.877
  79.1900         44807.000      60.647
  79.2900         44657.000      61.433
  79.3900         44635.000      60.975
  79.4900         44724.000      61.360
  79.5900         44749.000      61.327
  79.6900         44578.000      61.115
  79.7900         44050.000      60.852
  79.8900         43935.000      61.482
  79.9900         43445.000      60.083
  80.0900         43808.000      60.885
  80.1900         43174.000      60.490
  80.2900         43720.000      60.399
  80.3900         43317.000      59.422
  80.4900         43037.000      61.172
  80.5900         42972.000      59.917
  80.6900         43452.000      60.828
  80.7900         43313.000      60.117
  80.8900         43315.000      60.374
  80.9900         43017.000      59.883
  81.0900         43064.000      59.825
  81.1900         43287.000      61.033
  81.2900         43214.000      59.925
  81.3900         43070.000      59.900
  81.4900         43265.000      60.448
  81.5900         43415.000      60.357
  81.6900         43222.000      60.523
  81.7900         42626.000      59.372
  81.8900         42978.000      59.816
  81.9900         42721.000      58.472
  82.0900         42952.000      59.741
  82.1900         43341.000      60.374
  82.2900         42948.000      59.708
  82.3900         42756.000      60.033
  82.4900         42791.000      59.858
  82.5900         42835.000      60.208
  82.6900         43075.000      59.933
  82.7900         42702.000      60.457
  82.8900         42866.000      60.836
  82.9900         43021.000      60.523
  83.0900         42925.000      59.414
  83.1900         43072.000      60.316
  83.2900         43409.000      61.196
  83.3900         43018.000      59.900
  83.4900         42885.000      59.825
  83.5900         42414.000      60.000
  83.6900         43174.000      59.506
  83.7900         42649.000      60.058
  83.8900         43007.000      59.716
  83.9900         42741.000      61.041
  84.0900         42684.000      59.900
  84.1900         42727.000      60.158
  84.2900         42835.000      59.439
  84.3900         42437.000      59.582
  84.4900         43226.000      59.624
  84.5900         43346.000      59.800
  84.6900         44060.000      60.819
  84.7900         45288.000      61.604
  84.8900         45955.000      61.278
  84.9900         47406.000      63.624
  85.0900         48372.000      64.101
  85.1900         49348.000      64.869
  85.2900         51079.000      66.370
  85.3900         52834.000      66.310
  85.4900         53986.000      67.985
  85.5900         55516.000      68.007
  85.6900         55346.000      68.293
  85.7900         55196.000      67.417
  85.8900         54650.000      68.029
  85.9900         53050.000      66.940
  86.0900         51212.000      64.954
  86.1900         49786.000      64.405
  86.2900         48453.000      63.198
  86.3900         46629.000      62.306
  86.4900         44915.000      62.338
  86.5900         44188.000      61.555
  86.6900         43419.000      60.200
  86.7900         42651.000      60.291
  86.8900         42712.000      59.287
  86.9900         42338.000      59.858
  87.0900         42810.000      60.291
  87.1900         42027.000      59.925
  87.2900         42219.000      60.341
  87.3900         42315.000      59.540
  87.4900         42532.000      59.808
  87.5900         42234.000      59.958
  87.6900         42322.000      59.975
  87.7900         42463.000      59.397
  87.8900         42755.000      59.808
  87.9900         42370.000      60.200
  88.0900         42753.000      60.058
  88.1900         43468.000      59.858
  88.2900         43790.000      61.008
  88.3900         44387.000      60.630
  88.4900         44623.000      60.860
  88.5900         44487.000      60.696
  88.6900         44608.000      60.811
  88.7900         44045.000      60.754
  88.8900         43641.000      60.399
  88.9900         43396.000      61.139
  89.0900         42885.000      60.050
  89.1900         42506.000      60.000
  89.2900         42352.000      59.825
  89.3900         42026.000      59.237
  89.4900         42295.000      59.506
  89.5900         41944.000      59.127
  89.6900         41869.000      58.796
  89.7900         41963.000      60.150
  89.8900         42239.000      58.600
  89.9900         41961.000      58.924
  90.0900         41467.000      58.737
  90.1900         41925.000      59.228
  90.2900         42184.000      59.523
  90.3900         42527.000      59.699
  90.4900         43049.000      59.791
  90.5900         43030.000      59.841
  90.6900         42817.000      61.082
  90.7900         42323.000      59.900
  90.8900         42561.000      59.615
  90.9900         42650.000      60.225
  91.0900         42649.000      60.166
  91.1900         42572.000      60.316
  91.2900         42422.000      59.025
  91.3900         41939.000      59.590
  91.4900         41804.000      58.822
  91.5900         42035.000      59.068
  91.6900         41778.000      59.271
  91.7900         41791.000      57.793
  91.8900         41564.000      59.363
  91.9900         41829.000      59.582
  92.0900         41724.000      59.925
  92.1900         42054.000      59.271
  92.2900         41876.000      60.141
  92.3900         41505.000      58.626
  92.4900         41944.000      59.017
  92.5900         41756.000      59.254
  92.6900         41951.000      59.051
  92.7900         41916.000      59.085
  92.8900         41713.000      59.119
  92.9900         41811.000      58.566
  93.0900         42026.000      59.237
  93.1900         41662.000      59.657
  93.2900         41664.000      59.624
  93.3900         41795.000      59.917
  93.4900         41427.000      58.361
  93.5900         41661.000      59.439
  93.6900         41856.000      59.330
  93.7900         41595.000      58.830
  93.8900         41299.000      59.237
  93.9900         41494.000      58.292
  94.0900         42393.000      59.473
  94.1900         41583.000      58.198
  94.2900         41765.000      59.523
  94.3900         41517.000      59.548
  94.4900         41763.000      58.992
  94.5900         41676.000      59.372
  94.6900         42053.000      58.958
  94.7900         41852.000      59.666
  94.8900         41736.000      58.856
  94.9900         41544.000      59.321
  95.0900         41536.000      59.144
  95.1900         41551.000      59.135
  95.2900         41662.000      59.682
  95.3900         41738.000      59.271
  95.4900         41791.000      59.724
  95.5900         41529.000      58.856
  95.6900         41598.000      58.429
  95.7900         41956.000      59.590
  95.8900         42486.000      59.506
  95.9900         42400.000      59.883
  96.0900         42541.000      59.473
  96.1900         42539.000      60.448
  96.2900         42741.000      60.216
  96.3900         42260.000      60.663
  96.4900         42903.000      60.424
  96.5900         42437.000      60.440
  96.6900         41963.000      59.161
  96.7900         42097.000      59.439
  96.8900         41728.000      59.405
  96.9900         41748.000      59.473
  97.0900         41651.000      59.008
  97.1900         41833.000      59.296
  97.2900         41962.000      58.626
  97.3900         41492.000      57.741
  97.4900         41222.000      59.599
  97.5900         41203.000      58.249
  97.6900         41347.000      59.296
  97.7900         41747.000      59.363
  97.8900         41400.000      58.873
  97.9900         41355.000      59.034
  98.0900         41691.000      58.558
  98.1900         41382.000      58.069
  98.2900         41395.000      59.624
  98.3900         41556.000      58.983
  98.4900         41668.000      58.078
  98.5900         42058.000      59.783
  98.6900         41877.000      59.228
  98.7900         41946.000      59.766
  98.8900         42198.000      58.677
  98.9900         42382.000      59.615
  99.0900         42144.000      59.506
  99.1900         43311.000      60.407
  99.2900         43336.000      60.803
  99.3900         44011.000      60.133
  99.4900         44622.000      61.408
  99.5900         45286.000      62.482
  99.6900         45467.000      61.547
  99.7900         45437.000      61.049
  99.8900         45633.000      61.644
  99.9900         45242.000      61.457
 100.0900         45110.000      61.749
 100.1900         44685.000      61.571
 100.2900         43952.000      60.885
 100.3900         43802.000      60.712
 100.4900         43135.000      59.624
 100.5900         42907.000      59.489
 100.6900         42304.000      59.699
 100.7900         41758.000      58.898
 100.8900         41614.000      59.557
 100.9900         41433.000      58.523
 101.0900         41776.000      58.915
 101.1900         41195.000      58.737
 101.2900         41203.000      58.669
 101.3900         41273.000      59.716
 101.4900         41539.000      58.796
 101.5900         41785.000      59.783
 101.6900         41987.000      59.540
 101.7900         42206.000      59.389
 101.8900         41844.000      58.881
 101.9900         41549.000      59.254
 102.0900         41457.000      58.881
 102.1900         41428.000      58.711
 102.2900         41373.000      58.839
 102.3900         41136.000      57.957
 102.4900         41344.000      59.590
 102.5900         41132.000      58.078
 102.6900         41156.000      59.346
 102.7900         41443.000      59.363
 102.8900         41093.000      59.127
 102.9900         41264.000      58.566
 103.0900         40514.000      58.258
 103.1900         41183.000      59.565
 103.2900         41272.000      59.372
 103.3900         41040.000      59.008
 103.4900         40848.000      59.254
 103.5900         40929.000      58.898
 103.6900         41388.000      58.172
 103.7900         40836.000      58.370
 103.8900         40706.000      58.335
 103.9900         41014.000      58.412
 104.0900         40949.000      59.557
 104.1900         41102.000      59.741
 104.2900         40893.000      58.549
 104.3900         41111.000      59.195
 104.4900         41110.000      58.506
 104.5900         40973.000      59.068
 104.6900         41090.000      57.940
 104.7900         41152.000      58.932
 104.8900         40962.000      58.890
 104.9900         40984.000      58.694
 105.0900         41153.000      58.983
 105.1900         41062.000      59.051
 105.2900         41322.000      58.532
 105.3900         41052.000      58.660
 105.4900         41124.000      58.301
 105.5900         41547.000      59.102
 105.6900         41434.000      58.915
 105.7900         41564.000      59.144
 105.8900         41070.000      58.103
 105.9900         41058.000      58.932
 106.0900         41385.000      58.856
 106.1900         41122.000      59.017
 106.2900         41554.000      58.762
 106.3900         42215.000      59.691
 106.4900         42185.000      59.178
 106.5900         43430.000      60.075
 106.6900         45080.000      62.241
 106.7900         46744.000      62.056
 106.8900         48668.000      64.483
 106.9900         51336.000      65.475
 107.0900         53989.000      67.194
 107.1900         56663.000      69.195
 107.2900         60277.000      71.407
 107.3900         64447.000      73.164
 107.4900         68220.000      76.046
 107.5900         72474.000      77.576
 107.6900         77176.000      80.443
 107.7900         80924.000      82.517
 107.8900         86791.000      84.965
 107.9900         91133.000      87.539
 108.0900         93759.000      87.687
 108.1900         95306.000      90.227
 108.2900         96608.000      90.333
 108.3900         96339.000      89.750
 108.4900         95199.000      88.227
 108.5900         93688.000      87.476
 108.6900         90699.000      86.447
 108.7900         85856.000      84.575
 108.8900         79037.000      80.411
 108.9900         74760.000      79.737
 109.0900         70943.000      77.376
 109.1900         68250.000      75.644
 109.2900         64739.000      73.560
 109.3900         60592.000      70.306
 109.4900         56685.000      68.695
 109.5900         52370.000      66.061
 109.6900         49596.000      64.312
 109.7900         46608.000      63.309
 109.8900         45193.000      61.725
 109.9900         43983.000      61.644
 110.0900         43064.000      59.892
 110.1900         42538.000      60.150
 110.2900         42224.000      59.624
 110.3900         41417.000      58.864
 110.4900         41412.000      59.034
 110.5900         41239.000      58.907
 110.6900         41007.000      58.000
 110.7900         40674.000      58.626
 110.8900         40639.000      59.296
 110.9900         40804.000      57.689
 111.0900         40492.000      58.335
 111.1900         40521.000      58.224
 111.2900         40713.000      58.992
 111.3900         40823.000      56.947
 111.4900         40724.000      58.232
 111.5900         40957.000      58.915
 111.6900         40619.000      58.652
 111.7900         40774.000      59.076
 111.8900         40911.000      58.026
 111.9900         40718.000      58.112
 112.0900         40936.000      59.169
 112.1900         40968.000      59.287
 112.2900         41119.000      58.898
 112.3900         40563.000      58.172
 112.4900         41252.000      59.017
 112.5900         41141.000      58.881
 112.6900         40898.000      58.771
 112.7900         41002.000      57.697
 112.8900         41005.000      58.592
 112.9900         41284.000      59.220
 113.0900         41518.000      58.703
 113.1900         41528.000      59.076
 113.2900         41372.000      58.600
 113.3900         41009.000      58.643
 113.4900         41624.000      59.389
 113.5900         41338.000      58.652
 113.6900         41589.000      58.481
 113.7900         41237.000      59.287
 113.8900         41060.000      58.026
 113.9900         41127.000      59.119
 114.0900         41002.000      58.626
 114.1900         41123.000      58.686
 114.2900         40715.000      58.669
 114.3900         40713.000      58.617
 114.4900         40431.000      57.306
 114.5900         40322.000      58.506
 114.6900         40522.000      58.907
 114.7900         40314.000      57.550
 114.8900         40153.000      58.034
 114.9900         40464.000      58.549
 115.0900         40015.000      58.060
 115.1900         39903.000      57.862
 115.2900         39855.000      58.549
 115.3900         40318.000      58.626
 115.4900         39991.000      57.376
 115.5900         40110.000      58.103
 115.6900         40345.000      58.335
 115.7900         40022.000      58.172
 115.8900         40039.000      58.249
 115.9900         39775.000      57.201
 116.0900         40322.000      58.643
 116.1900         40243.000      57.507
 116.2900         39577.000      58.361
 116.3900         39819.000      57.611
 116.4900         40072.000      57.332
 116.5900         39887.000      57.991
 116.6900         39877.000      57.991
 116.7900         39765.000      57.324
 116.8900         39903.000      58.788
 116.9900         39746.000      57.819
 117.0900         39638.000      57.289
 117.1900         39882.000      57.671
 117.2900         39772.000      58.052
 117.3900         39338.000      57.827
 117.4900         40137.000      58.489
 117.5900         39876.000      56.939
 117.6900         39887.000      57.550
 117.7900         39937.000      58.112
 117.8900         39720.000      57.991
 117.9900         39901.000      58.189
 118.0900         40250.000      57.446
 118.1900         40135.000      58.103
 118.2900         39877.000      58.378
 118.3900         39883.000      58.146
 118.4900         40204.000      57.793
 118.5900         40319.000      58.720
 118.6900         40090.000      58.155
 118.7900         40202.000      58.215
 118.8900         39717.000      57.888
 118.9900         39928.000      58.275
 119.0900         40008.000      57.515
 119.1900         39582.000      56.982
 119.2900         39870.000      57.966
 119.3900         39784.000      57.559
 119.4900         40131.000      57.974
 119.5900         39937.000      57.446
 119.6900         39982.000      57.663
 119.7900         40338.000      57.420
 119.8900         40039.000      58.172
 119.9900         39750.000      58.095
 120.0900         39869.000      57.879
 120.1900         40125.000      57.611
 120.2900         40025.000      58.566
 120.3900         39820.000      58.009
 120.4900         39799.000      57.871
 120.5900         39762.000      57.983
 120.6900         40166.000      57.576
 120.7900         40143.000      57.550
 120.8900         39973.000      58.335
 120.9900         40381.000      58.464
 121.0900         41347.000      58.907
 121.1900         41342.000      58.907
 121.2900         42266.000      59.127
 121.3900         43358.000      60.058
 121.4900         44738.000      61.798
 121.5900         46857.000      62.129
 121.6900         49617.000      64.576
 121.7900         52750.000      67.127
 121.8900         56294.000      68.775
 121.9900         59591.000      70.036
 122.0900         63990.000      73.865
 122.1900         67383.000      76.354
 122.2900         71305.000      77.968
 122.3900         75555.000      79.417
 122.4900         81025.000      83.018
 122.5900         88416.000      85.592
 122.6900         94690.000      89.370
 122.7900        101920.000      92.174
 122.8900        107919.000      95.786
 122.9900        114421.000      97.524
 123.0900        121513.000     101.568
 123.1900        129427.000     104.067
 123.2900        138850.000     107.583
 123.3900        145874.000     110.531
 123.4900        152498.000     111.862
 123.5900        159230.000     115.135
 123.6900        163690.000     117.021
 123.7900        166014.000     117.729
 123.8900        167891.000     118.642
 123.9900        168785.000     118.886
 124.0900        167611.000     117.754
 124.1900        165903.000     117.550
 124.2900        163949.000     116.379
 124.3900        158687.000     114.761
 124.4900        151385.000     112.388
 124.5900        141797.000     108.503
 124.6900        130901.000     103.146
 124.7900        120983.000      99.161
 124.8900        112442.000      95.896
 124.9900        107832.000      94.387
 125.0900        104910.000      93.456
 125.1900        101209.000      91.049
 125.2900         94932.000      88.532
 125.3900         88049.000      85.276
 125.4900         80540.000      81.345
 125.5900         72543.000      77.382
 125.6900         66545.000      74.766
 125.7900         61619.000      72.153
 125.8900         57058.000      67.654
 125.9900         54004.000      67.290
 126.0900         50739.000      65.284
 126.1900         48461.000      63.435
 126.2900         46739.000      61.863
 126.3900         45555.000      61.360
 126.4900         44474.000      60.754
 126.5900         43321.000      60.589
 126.6900         43278.000      60.092
 126.7900         42551.000      59.262
 126.8900         42302.000      59.271
 126.9900         41416.000      58.983
 127.0900         41071.000      58.506
 127.1900         40536.000      58.421
 127.2900         40137.000      57.940
 127.3900         40011.000      58.052
 127.4900         39757.000      57.454
 127.5900         39329.000      57.044
 127.6900         39884.000      57.888
 127.7900         39374.000      58.009
 127.8900         39543.000      57.114
 127.9900         39171.000      57.645
 128.0900         39115.000      56.701
 128.1900         38753.000      56.991
 128.2900         39110.000      57.079
 128.3900         38793.000      56.604
 128.4900         39079.000      57.114
 128.5900             3.000       1.000
 128.6900             6.000       1.000
