XYDATA SparksLave Co3O4-quenched_850_100K 
INTER        1       1       0     0.100000
TEMP       99.7840      100.004      100.000
! d1b Date 14-Nov-11 Time 10:26:34 Run 129944 129931>129944
! d1b Date 14-Nov-11 Time 10:26:34 Run 129944 129931>129944
! Monitor/counts, Counting time/sec:  1.26783e+007 1.26783e+007
   0.7900             2.000       1.000
   0.8900            10.000       1.414
   0.9900          2280.000      12.166
   1.0900          2292.000      12.923
   1.1900          2253.000      11.619
   1.2900          2091.000      12.124
   1.3900          2178.000      12.247
   1.4900          2233.000      12.923
   1.5900          2278.000      12.923
   1.6900          2465.000      13.266
   1.7900          3041.000      14.765
   1.8900          4666.000      18.574
   1.9900          7622.000      22.956
   2.0900         10790.000      27.767
   2.1900         13115.000      30.480
   2.2900         16847.000      34.147
   2.3900         21252.000      38.949
   2.4900         25968.000      42.603
   2.5900         30249.000      46.087
   2.6900         34702.000      49.629
   2.7900         38017.000      51.952
   2.8900         41607.000      53.907
   2.9900         44433.000      56.409
   3.0900         48171.000      59.833
   3.1900         51421.000      60.523
   3.2900         53381.000      62.016
   3.3900         53736.000      62.241
   3.4900         53052.000      61.652
   3.5900         52490.000      60.506
   3.6900         51446.000      60.473
   3.7900         51233.000      60.647
   3.8900         49595.000      60.017
   3.9900         50632.000      60.274
   4.0900         50174.000      59.791
   4.1900         50321.000      59.900
   4.2900         50775.000      60.025
   4.3900         51466.000      60.506
   4.4900         52371.000      61.262
   4.5900         53900.000      62.338
   4.6900         55556.000      62.857
   4.7900         57181.000      64.101
   4.8900         59265.000      64.351
   4.9900         61257.000      66.317
   5.0900         62744.000      67.528
   5.1900         64978.000      67.868
   5.2900         66822.000      69.549
   5.3900         68633.000      71.127
   5.4900         69742.000      69.936
   5.5900         72175.000      71.428
   5.6900         73350.000      73.130
   5.7900         75315.000      72.897
   5.8900         77118.000      73.123
   5.9900         78513.000      74.893
   6.0900         79091.000      74.626
   6.1900         79270.000      74.471
   6.2900         79426.000      75.816
   6.3900         78743.000      74.236
   6.4900         79330.000      75.100
   6.5900         78910.000      75.140
   6.6900         78052.000      75.053
   6.7900         77280.000      73.607
   6.8900         77380.000      74.371
   6.9900         76957.000      74.101
   7.0900         76342.000      74.135
   7.1900         74720.000      72.581
   7.2900         74417.000      72.979
   7.3900         73484.000      72.180
   7.4900         73040.000      71.882
   7.5900         72166.000      71.477
   7.6900         71011.000      71.337
   7.7900         70717.000      70.944
   7.8900         70027.000      71.014
   7.9900         68158.000      70.036
   8.0900         67480.000      70.043
   8.1900         66680.000      68.724
   8.2900         65897.000      69.498
   8.3900         64667.000      67.742
   8.4900         64253.000      67.772
   8.5900         63112.000      66.438
   8.6900         61802.000      65.658
   8.7900         60649.000      65.719
   8.8900         59917.000      65.628
   8.9900         58609.000      64.467
   9.0900         58354.000      64.707
   9.1900         57134.000      64.529
   9.2900         56522.000      63.545
   9.3900         55461.000      63.119
   9.4900         54826.000      63.309
   9.5900         53324.000      62.426
   9.6900         51954.000      61.156
   9.7900         51691.000      60.506
   9.8900         50592.000      60.556
   9.9900         49425.000      60.075
  10.0900         48583.000      59.102
  10.1900         47645.000      58.626
  10.2900         46655.000      57.324
  10.3900         46329.000      57.845
  10.4900         45219.000      57.350
  10.5900         44460.000      56.427
  10.6900         44017.000      56.329
  10.7900         43415.000      55.272
  10.8900         42667.000      55.027
  10.9900         42866.000      56.727
  11.0900         42667.000      55.678
  11.1900         42719.000      54.489
  11.2900         42294.000      55.480
  11.3900         41981.000      54.443
  11.4900         42437.000      55.082
  11.5900         42528.000      55.335
  11.6900         42123.000      55.191
  11.7900         41985.000      54.489
  11.8900         41925.000      55.516
  11.9900         41801.000      54.342
  12.0900         42284.000      54.129
  12.1900         41988.000      54.745
  12.2900         42119.000      54.222
  12.3900         41869.000      54.415
  12.4900         41811.000      54.406
  12.5900         42563.000      54.791
  12.6900         42036.000      54.836
  12.7900         42059.000      53.591
  12.8900         41670.000      54.286
  12.9900         41923.000      55.027
  13.0900         41646.000      54.277
  13.1900         41488.000      54.378
  13.2900         41407.000      53.451
  13.3900         41537.000      54.580
  13.4900         41356.000      54.387
  13.5900         41649.000      54.148
  13.6900         41754.000      53.991
  13.7900         41704.000      53.907
  13.8900         41580.000      54.065
  13.9900         41741.000      54.699
  14.0900         41677.000      54.240
  14.1900         41991.000      54.945
  14.2900         41512.000      54.406
  14.3900         41363.000      54.626
  14.4900         41822.000      55.027
  14.5900         41946.000      54.479
  14.6900         41653.000      55.435
  14.7900         41788.000      54.083
  14.8900         41625.000      54.763
  14.9900         42072.000      54.433
  15.0900         41799.000      54.268
  15.1900         42465.000      54.571
  15.2900         42604.000      55.399
  15.3900         43395.000      55.191
  15.4900         43481.000      55.263
  15.5900         43043.000      55.417
  15.6900         41962.000      54.580
  15.7900         42227.000      54.991
  15.8900         41765.000      54.037
  15.9900         42068.000      54.213
  16.0900         42080.000      53.684
  16.1900         41522.000      53.796
  16.2900         41756.000      55.245
  16.3900         42074.000      54.443
  16.4900         41647.000      53.842
  16.5900         41894.000      54.818
  16.6900         42190.000      54.415
  16.7900         41599.000      55.145
  16.8900         41893.000      55.462
  16.9900         42100.000      53.926
  17.0900         41978.000      53.935
  17.1900         42024.000      55.100
  17.2900         41968.000      54.690
  17.3900         41861.000      54.936
  17.4900         41896.000      53.600
  17.5900         41991.000      54.617
  17.6900         42136.000      54.635
  17.7900         41906.000      53.842
  17.8900         41841.000      54.617
  17.9900         42174.000      55.480
  18.0900         42534.000      55.426
  18.1900         42430.000      54.452
  18.2900         42192.000      54.945
  18.3900         42161.000      55.182
  18.4900         42239.000      54.369
  18.5900         42469.000      54.635
  18.6900         42583.000      54.909
  18.7900         42727.000      54.663
  18.8900         41991.000      54.745
  18.9900         42150.000      54.690
  19.0900         42382.000      54.653
  19.1900         42208.000      55.390
  19.2900         42447.000      54.690
  19.3900         41894.000      54.028
  19.4900         42227.000      54.571
  19.5900         42158.000      54.644
  19.6900         42025.000      54.203
  19.7900         42049.000      55.154
  19.8900         42325.000      55.444
  19.9900         42632.000      54.727
  20.0900         42319.000      55.579
  20.1900         42340.000      54.672
  20.2900         42624.000      55.749
  20.3900         42509.000      54.332
  20.4900         42766.000      55.937
  20.5900         42893.000      54.553
  20.6900         42888.000      55.254
  20.7900         42877.000      55.371
  20.8900         43352.000      55.344
  20.9900         43098.000      55.317
  21.0900         42734.000      54.791
  21.1900         42687.000      55.326
  21.2900         42605.000      54.991
  21.3900         42472.000      54.120
  21.4900         42378.000      54.644
  21.5900         42745.000      54.415
  21.6900         42350.000      54.644
  21.7900         42811.000      54.882
  21.8900         42541.000      54.754
  21.9900         42446.000      55.100
  22.0900         43092.000      54.991
  22.1900         42751.000      55.399
  22.2900         42666.000      54.809
  22.3900         42497.000      54.754
  22.4900         42412.000      55.669
  22.5900         42622.000      54.489
  22.6900         42747.000      54.955
  22.7900         42683.000      55.381
  22.8900         43278.000      56.152
  22.9900         42789.000      54.964
  23.0900         42644.000      54.599
  23.1900         42498.000      54.672
  23.2900         42678.000      55.073
  23.3900         42737.000      55.642
  23.4900         42533.000      54.845
  23.5900         42824.000      54.827
  23.6900         42392.000      54.397
  23.7900         43298.000      55.507
  23.8900         43253.000      55.045
  23.9900         43618.000      55.561
  24.0900         43360.000      56.294
  24.1900         43055.000      55.588
  24.2900         42893.000      55.543
  24.3900         42983.000      55.426
  24.4900         42834.000      55.597
  24.5900         42800.000      55.561
  24.6900         42949.000      54.644
  24.7900         43061.000      55.848
  24.8900         43206.000      55.091
  24.9900         42875.000      55.281
  25.0900         42829.000      54.433
  25.1900         42740.000      55.471
  25.2900         43225.000      54.827
  25.3900         44069.000      55.723
  25.4900         44231.000      55.615
  25.5900         43553.000      54.690
  25.6900         43092.000      56.577
  25.7900         43128.000      55.082
  25.8900         43175.000      55.227
  25.9900         43476.000      55.172
  26.0900         43294.000      55.480
  26.1900         43283.000      55.561
  26.2900         43623.000      55.100
  26.3900         43026.000      54.681
  26.4900         43162.000      55.875
  26.5900         43016.000      55.767
  26.6900         42948.000      54.927
  26.7900         43134.000      55.082
  26.8900         43371.000      55.462
  26.9900         43726.000      56.754
  27.0900         43395.000      55.705
  27.1900         43221.000      55.381
  27.2900         43309.000      55.009
  27.3900         43553.000      55.534
  27.4900         43203.000      55.308
  27.5900         43152.000      55.857
  27.6900         43232.000      55.839
  27.7900         43391.000      55.344
  27.8900         42995.000      55.109
  27.9900         43176.000      55.281
  28.0900         43451.000      56.152
  28.1900         43590.000      55.794
  28.2900         43761.000      55.776
  28.3900         43532.000      55.308
  28.4900         43626.000      56.267
  28.5900         43493.000      55.154
  28.6900         43707.000      55.588
  28.7900         43822.000      55.884
  28.8900         43154.000      55.920
  28.9900         43708.000      55.371
  29.0900         43627.000      55.767
  29.1900         43732.000      54.882
  29.2900         43503.000      55.000
  29.3900         43756.000      55.254
  29.4900         43643.000      55.027
  29.5900         43757.000      55.785
  29.6900         43423.000      56.480
  29.7900         43991.000      55.462
  29.8900         44579.000      55.453
  29.9900         45081.000      57.254
  30.0900         44975.000      56.921
  30.1900         44157.000      55.821
  30.2900         43980.000      55.453
  30.3900         44486.000      55.830
  30.4900         43869.000      56.604
  30.5900         44029.000      55.642
  30.6900         44088.000      55.794
  30.7900         44446.000      55.453
  30.8900         45581.000      56.701
  30.9900         49921.000      59.059
  31.0900         63502.000      67.498
  31.1900         88838.000      79.819
  31.2900        114669.000      90.438
  31.3900        119366.000      92.369
  31.4900         98626.000      83.481
  31.5900         70553.000      71.225
  31.6900         52156.000      60.498
  31.7900         45654.000      56.974
  31.8900         44817.000      56.895
  31.9900         44144.000      55.920
  32.0900         44168.000      55.857
  32.1900         44074.000      55.920
  32.2900         44128.000      56.507
  32.3900         43898.000      56.542
  32.4900         43880.000      55.516
  32.5900         43208.000      55.624
  32.6900         43818.000      55.335
  32.7900         43639.000      55.839
  32.8900         43295.000      55.776
  32.9900         43623.000      56.036
  33.0900         43522.000      55.453
  33.1900         43761.000      56.365
  33.2900         43650.000      55.749
  33.3900         43608.000      55.812
  33.4900         43653.000      55.236
  33.5900         43363.000      54.754
  33.6900         43362.000      55.417
  33.7900         43225.000      54.653
  33.8900         43469.000      55.705
  33.9900         43852.000      56.232
  34.0900         44080.000      55.642
  34.1900         44766.000      56.383
  34.2900         44450.000      56.000
  34.3900         44155.000      56.427
  34.4900         43900.000      55.381
  34.5900         43274.000      55.118
  34.6900         43497.000      54.818
  34.7900         42845.000      55.489
  34.8900         43247.000      55.018
  34.9900         43269.000      55.200
  35.0900         43601.000      55.758
  35.1900         43118.000      56.205
  35.2900         43391.000      56.116
  35.3900         42878.000      55.426
  35.4900         43022.000      55.009
  35.5900         43619.000      55.227
  35.6900         43122.000      54.690
  35.7900         43220.000      55.109
  35.8900         43228.000      55.660
  35.9900         42972.000      56.391
  36.0900         44037.000      56.000
  36.1900         47108.000      58.267
  36.2900         53340.000      61.612
  36.3900         55964.000      63.710
  36.4900         51890.000      60.934
  36.5900         46882.000      56.409
  36.6900         43929.000      55.362
  36.7900         43210.000      54.918
  36.8900         42915.000      54.599
  36.9900         43368.000      56.062
  37.0900         42728.000      55.236
  37.1900         42609.000      54.708
  37.2900         42408.000      54.599
  37.3900         42802.000      55.588
  37.4900         42903.000      55.696
  37.5900         42895.000      55.462
  37.6900         42872.000      55.453
  37.7900         42578.000      55.624
  37.8900         42592.000      55.678
  37.9900         42675.000      54.973
  38.0900         42501.000      54.452
  38.1900         42302.000      54.507
  38.2900         42607.000      55.245
  38.3900         42219.000      55.579
  38.4900         42769.000      54.580
  38.5900         42341.000      54.818
  38.6900         42485.000      55.172
  38.7900         42541.000      54.982
  38.8900         42339.000      56.418
  38.9900         42467.000      54.259
  39.0900         42356.000      55.848
  39.1900         42321.000      55.245
  39.2900         42740.000      54.982
  39.3900         42367.000      55.344
  39.4900         42471.000      54.452
  39.5900         42939.000      54.763
  39.6900         43084.000      54.727
  39.7900         43333.000      55.426
  39.8900         43269.000      55.245
  39.9900         42563.000      55.507
  40.0900         42397.000      54.433
  40.1900         42547.000      54.507
  40.2900         42437.000      54.268
  40.3900         42419.000      55.326
  40.4900         42348.000      54.836
  40.5900         42158.000      54.617
  40.6900         42238.000      54.708
  40.7900         42321.000      54.800
  40.8900         42021.000      54.268
  40.9900         41867.000      54.909
  41.0900         41988.000      55.055
  41.1900         42228.000      55.453
  41.2900         42542.000      55.200
  41.3900         42083.000      55.200
  41.4900         41989.000      54.534
  41.5900         41990.000      53.889
  41.6900         42269.000      54.415
  41.7900         42222.000      54.781
  41.8900         42059.000      54.818
  41.9900         41975.000      54.580
  42.0900         42145.000      55.471
  42.1900         42057.000      54.791
  42.2900         42388.000      54.617
  42.3900         42341.000      55.344
  42.4900         42201.000      54.562
  42.5900         41773.000      54.534
  42.6900         41821.000      53.638
  42.7900         41672.000      55.064
  42.8900         41786.000      54.222
  42.9900         41924.000      55.606
  43.0900         41705.000      54.544
  43.1900         42064.000      54.918
  43.2900         41746.000      53.898
  43.3900         41848.000      54.918
  43.4900         42309.000      54.571
  43.5900         42113.000      54.461
  43.6900         42183.000      55.045
  43.7900         41687.000      54.176
  43.8900         41795.000      55.245
  43.9900         41517.000      54.452
  44.0900         41688.000      53.954
  44.1900         41771.000      54.378
  44.2900         41780.000      55.100
  44.3900         42065.000      54.056
  44.4900         41854.000      54.690
  44.5900         41756.000      54.443
  44.6900         41478.000      54.763
  44.7900         42026.000      54.909
  44.8900         41545.000      53.376
  44.9900         41868.000      55.100
  45.0900         41542.000      54.836
  45.1900         41876.000      54.617
  45.2900         41726.000      54.763
  45.3900         42014.000      54.507
  45.4900         41735.000      54.332
  45.5900         42075.000      54.745
  45.6900         42017.000      54.479
  45.7900         41836.000      55.344
  45.8900         41709.000      54.433
  45.9900         41759.000      54.498
  46.0900         41763.000      54.891
  46.1900         41580.000      54.286
  46.2900         41671.000      55.381
  46.3900         41918.000      54.378
  46.4900         41938.000      54.194
  46.5900         41906.000      54.945
  46.6900         41702.000      53.935
  46.7900         42077.000      54.305
  46.8900         41729.000      54.083
  46.9900         42152.000      55.045
  47.0900         41683.000      54.037
  47.1900         42574.000      55.911
  47.2900         41678.000      54.580
  47.3900         41681.000      54.580
  47.4900         41569.000      54.424
  47.5900         42381.000      54.498
  47.6900         44190.000      55.705
  47.7900         46979.000      57.341
  47.8900         47450.000      57.175
  47.9900         46113.000      57.749
  48.0900         43615.000      56.312
  48.1900         42533.000      55.417
  48.2900         42120.000      54.378
  48.3900         41954.000      55.018
  48.4900         41664.000      54.525
  48.5900         42063.000      55.281
  48.6900         42087.000      55.371
  48.7900         41907.000      54.194
  48.8900         41617.000      54.562
  48.9900         41769.000      55.299
  49.0900         41903.000      54.378
  49.1900         41889.000      55.785
  49.2900         42182.000      55.064
  49.3900         42192.000      54.818
  49.4900         41881.000      55.082
  49.5900         42191.000      54.882
  49.6900         41721.000      54.672
  49.7900         41573.000      54.544
  49.8900         41546.000      55.705
  49.9900         42243.000      54.562
  50.0900         41766.000      54.240
  50.1900         41825.000      53.768
  50.2900         41994.000      54.213
  50.3900         42000.000      54.489
  50.4900         42180.000      54.909
  50.5900         41680.000      55.018
  50.6900         41534.000      54.498
  50.7900         41649.000      54.332
  50.8900         42041.000      54.360
  50.9900         42532.000      53.647
  51.0900         41710.000      54.305
  51.1900         42142.000      54.443
  51.2900         41777.000      54.763
  51.3900         41726.000      54.498
  51.4900         41992.000      55.118
  51.5900         42088.000      55.009
  51.6900         42083.000      55.073
  51.7900         42696.000      55.776
  51.8900         43954.000      56.276
  51.9900         47033.000      58.129
  52.0900         51368.000      60.000
  52.1900         58850.000      63.969
  52.2900         68946.000      70.937
  52.3900         74844.000      73.226
  52.4900         73160.000      72.083
  52.5900         66490.000      68.527
  52.6900         57086.000      63.537
  52.7900         48103.000      58.830
  52.8900         44257.000      56.427
  52.9900         42706.000      55.000
  53.0900         42128.000      54.433
  53.1900         42134.000      54.626
  53.2900         41970.000      54.046
  53.3900         41901.000      54.617
  53.4900         42027.000      55.127
  53.5900         42139.000      54.882
  53.6900         41877.000      53.777
  53.7900         41941.000      54.854
  53.8900         41768.000      53.935
  53.9900         41554.000      54.295
  54.0900         42202.000      54.736
  54.1900         41473.000      54.470
  54.2900         41983.000      55.100
  54.3900         41318.000      54.342
  54.4900         41881.000      53.572
  54.5900         41576.000      54.479
  54.6900         41747.000      53.991
  54.7900         42193.000      54.185
  54.8900         42581.000      55.000
  54.9900         42587.000      54.589
  55.0900         42511.000      55.045
  55.1900         42197.000      54.617
  55.2900         42077.000      54.891
  55.3900         42248.000      54.690
  55.4900         41934.000      54.166
  55.5900         42330.000      55.082
  55.6900         41802.000      53.861
  55.7900         42273.000      53.898
  55.8900         41892.000      53.675
  55.9900         42067.000      54.964
  56.0900         42208.000      55.705
  56.1900         42014.000      55.453
  56.2900         41654.000      54.286
  56.3900         41803.000      54.699
  56.4900         42060.000      54.672
  56.5900         41866.000      54.836
  56.6900         41841.000      55.000
  56.7900         41198.000      54.589
  56.8900         41522.000      53.619
  56.9900         41866.000      54.369
  57.0900         41813.000      55.127
  57.1900         42113.000      54.936
  57.2900         42009.000      55.073
  57.3900         41611.000      54.000
  57.4900         41884.000      55.154
  57.5900         41480.000      54.635
  57.6900         41724.000      53.348
  57.7900         41594.000      54.589
  57.8900         41709.000      54.964
  57.9900         41734.000      55.127
  58.0900         41587.000      54.231
  58.1900         41477.000      53.479
  58.2900         41799.000      55.154
  58.3900         41680.000      54.259
  58.4900         41529.000      54.332
  58.5900         42269.000      55.552
  58.6900         41869.000      54.863
  58.7900         41760.000      54.945
  58.8900         42037.000      54.406
  58.9900         41817.000      53.582
  59.0900         41841.000      55.100
  59.1900         41998.000      54.470
  59.2900         41726.000      54.479
  59.3900         41740.000      55.000
  59.4900         41975.000      55.182
  59.5900         42139.000      53.963
  59.6900         42089.000      54.617
  59.7900         41927.000      54.525
  59.8900         42071.000      54.800
  59.9900         41866.000      55.335
  60.0900         41859.000      54.736
  60.1900         42205.000      55.118
  60.2900         41610.000      53.991
  60.3900         41643.000      53.582
  60.4900         41921.000      54.982
  60.5900         41815.000      53.814
  60.6900         41806.000      54.295
  60.7900         42043.000      54.909
  60.8900         42106.000      54.873
  60.9900         41900.000      53.554
  61.0900         42404.000      55.399
  61.1900         42287.000      54.763
  61.2900         42617.000      55.371
  61.3900         43159.000      55.946
  61.4900         42809.000      55.371
  61.5900         43577.000      55.937
  61.6900         44558.000      55.534
  61.7900         46877.000      57.983
  61.8900         49632.000      59.816
  61.9900         53378.000      62.209
  62.0900         58694.000      65.054
  62.1900         64632.000      67.683
  62.2900         70424.000      70.746
  62.3900         71251.000      70.795
  62.4900         68763.000      69.484
  62.5900         64861.000      68.073
  62.6900         59056.000      64.969
  62.7900         53084.000      61.733
  62.8900         47211.000      57.983
  62.9900         44726.000      56.347
  63.0900         42932.000      54.681
  63.1900         43034.000      55.100
  63.2900         42497.000      55.045
  63.3900         42221.000      54.982
  63.4900         42232.000      55.009
  63.5900         42356.000      55.281
  63.6900         42406.000      54.800
  63.7900         42230.000      54.845
  63.8900         42116.000      54.378
  63.9900         42673.000      54.991
  64.0900         42715.000      54.772
  64.1900         43028.000      56.409
  64.2900         43288.000      55.163
  64.3900         43729.000      55.200
  64.4900         43716.000      55.740
  64.5900         46212.000      58.395
  64.6900         51383.000      60.390
  64.7900         64041.000      66.648
  64.8900         84809.000      77.414
  64.9900        112234.000      89.922
  65.0900        142106.000     100.444
  65.1900        177884.000     113.062
  65.2900        221511.000     126.135
  65.3900        253840.000     134.361
  65.4900        255001.000     135.289
  65.5900        241539.000     131.469
  65.6900        219035.000     125.256
  65.7900        183981.000     113.873
  65.8900        141479.000      99.900
  65.9900        100368.000      84.273
  66.0900         70189.000      70.057
  66.1900         56012.000      62.378
  66.2900         49083.000      59.397
  66.3900         46106.000      57.096
  66.4900         43780.000      56.383
  66.5900         43275.000      55.417
  66.6900         42668.000      55.633
  66.7900         42202.000      54.991
  66.8900         41951.000      54.176
  66.9900         41721.000      54.406
  67.0900         41799.000      54.046
  67.1900         41234.000      54.342
  67.2900         41394.000      53.731
  67.3900         41325.000      54.102
  67.4900         41691.000      54.489
  67.5900         42262.000      55.839
  67.6900         42960.000      55.516
  67.7900         43406.000      55.408
  67.8900         42815.000      54.818
  67.9900         41977.000      54.424
  68.0900         41941.000      54.443
  68.1900         41218.000      54.663
  68.2900         40833.000      54.690
  68.3900         40945.000      53.926
  68.4900         40809.000      54.037
  68.5900         40818.000      54.891
  68.6900         40799.000      53.404
  68.7900         41062.000      53.972
  68.8900         40698.000      54.231
  68.9900         40705.000      53.047
  69.0900         40677.000      54.314
  69.1900         40526.000      54.111
  69.2900         40486.000      53.694
  69.3900         40179.000      53.861
  69.4900         40492.000      53.235
  69.5900         40432.000      54.203
  69.6900         40604.000      53.824
  69.7900         40259.000      52.943
  69.8900         40330.000      52.754
  69.9900         40302.000      53.160
  70.0900         39687.000      53.057
  70.1900         40210.000      53.703
  70.2900         40315.000      52.335
  70.3900         39980.000      53.833
  70.4900         39524.000      53.740
  70.5900         40141.000      53.638
  70.6900         40038.000      53.151
  70.7900         39938.000      52.991
  70.8900         40106.000      53.703
  70.9900         40276.000      53.357
  71.0900         40040.000      52.783
  71.1900         40368.000      53.842
  71.2900         41048.000      53.656
  71.3900         41104.000      53.954
  71.4900         41752.000      53.852
  71.5900         41860.000      53.282
  71.6900         42368.000      54.397
  71.7900         43285.000      55.371
  71.8900         44025.000      56.604
  71.9900         44057.000      56.214
  72.0900         44284.000      55.642
  72.1900         44878.000      56.542
  72.2900         44745.000      55.991
  72.3900         44675.000      56.524
  72.4900         44067.000      56.498
  72.5900         43764.000      55.462
  72.6900         42978.000      55.200
  72.7900         42533.000      54.378
  72.8900         41924.000      54.470
  72.9900         41581.000      54.955
  73.0900         41233.000      54.314
  73.1900         40990.000      54.176
  73.2900         40503.000      53.694
  73.3900         40594.000      53.981
  73.4900         40924.000      53.019
  73.5900         41659.000      54.818
  73.6900         41356.000      54.286
  73.7900         41376.000      53.852
  73.8900         41418.000      54.213
  73.9900         40747.000      54.351
  74.0900         40539.000      53.123
  74.1900         40340.000      53.684
  74.2900         39890.000      53.282
  74.3900         39942.000      53.600
  74.4900         39621.000      52.316
  74.5900         39845.000      53.273
  74.6900         39910.000      53.666
  74.7900         40401.000      53.479
  74.8900         40226.000      52.745
  74.9900         39821.000      53.113
  75.0900         39755.000      52.915
  75.1900         39610.000      53.141
  75.2900         39799.000      53.235
  75.3900         39732.000      52.962
  75.4900         40198.000      53.104
  75.5900         40169.000      53.028
  75.6900         40287.000      53.395
  75.7900         40436.000      54.019
  75.8900         40721.000      53.572
  75.9900         41403.000      54.157
  76.0900         41872.000      53.879
  76.1900         43619.000      55.911
  76.2900         48359.000      58.404
  76.3900         57115.000      64.382
  76.4900         71237.000      71.225
  76.5900         88853.000      80.181
  76.6900        110480.000      88.431
  76.7900        133044.000      97.134
  76.8900        157169.000     106.085
  76.9900        189386.000     116.409
  77.0900        222851.000     124.972
  77.1900        244785.000     131.583
  77.2900        244927.000     132.567
  77.3900        238477.000     130.277
  77.4900        221537.000     126.028
  77.5900        195220.000     117.558
  77.6900        168021.000     108.839
  77.7900        139820.000      99.131
  77.8900        108772.000      88.199
  77.9900         80291.000      75.921
  78.0900         62129.000      67.007
  78.1900         52900.000      61.368
  78.2900         48025.000      57.827
  78.3900         44465.000      55.857
  78.4900         42398.000      55.082
  78.5900         40919.000      54.176
  78.6900         40232.000      53.935
  78.7900         40036.000      53.198
  78.8900         39694.000      53.413
  78.9900         39778.000      53.310
  79.0900         39388.000      52.431
  79.1900         39944.000      53.507
  79.2900         40249.000      53.656
  79.3900         40390.000      53.787
  79.4900         40734.000      53.749
  79.5900         40586.000      52.583
  79.6900         40553.000      53.638
  79.7900         39833.000      52.583
  79.8900         39750.000      53.777
  79.9900         39213.000      52.716
  80.0900         38814.000      53.028
  80.1900         38856.000      52.773
  80.2900         38771.000      51.371
  80.3900         38900.000      52.877
  80.4900         38823.000      52.498
  80.5900         39012.000      52.593
  80.6900         38727.000      53.151
  80.7900         38665.000      53.488
  80.8900         38653.000      52.086
  80.9900         38978.000      52.440
  81.0900         38502.000      51.904
  81.1900         38667.000      51.205
  81.2900         38201.000      52.402
  81.3900         38409.000      51.913
  81.4900         38501.000      52.773
  81.5900         38285.000      52.754
  81.6900         38390.000      52.038
  81.7900         38472.000      52.783
  81.8900         38578.000      52.450
  81.9900         38198.000      52.583
  82.0900         38381.000      52.849
  82.1900         38217.000      52.498
  82.2900         38487.000      52.144
  82.3900         38353.000      51.595
  82.4900         38339.000      51.653
  82.5900         38073.000      52.507
  82.6900         38288.000      52.631
  82.7900         38733.000      52.915
  82.8900         38269.000      52.507
  82.9900         38509.000      52.849
  83.0900         38886.000      53.151
  83.1900         38839.000      52.469
  83.2900         38255.000      51.865
  83.3900         38514.000      51.971
  83.4900         38056.000      53.028
  83.5900         38261.000      51.176
  83.6900         38215.000      51.633
  83.7900         38111.000      52.058
  83.8900         37941.000      52.431
  83.9900         37844.000      52.783
  84.0900         38183.000      51.856
  84.1900         38103.000      51.759
  84.2900         38344.000      52.669
  84.3900         37994.000      52.125
  84.4900         38244.000      52.010
  84.5900         38725.000      52.659
  84.6900         39852.000      54.083
  84.7900         40485.000      53.861
  84.8900         42101.000      54.745
  84.9900         43427.000      55.489
  85.0900         45068.000      56.595
  85.1900         47036.000      58.112
  85.2900         48462.000      59.093
  85.3900         50762.000      60.448
  85.4900         53222.000      61.106
  85.5900         55423.000      63.071
  85.6900         56490.000      63.238
  85.7900         56005.000      63.961
  85.8900         55414.000      62.458
  85.9900         53855.000      61.563
  86.0900         52427.000      61.498
  86.1900         49743.000      59.439
  86.2900         47594.000      57.914
  86.3900         45967.000      57.070
  86.4900         43197.000      56.338
  86.5900         40916.000      55.055
  86.6900         39839.000      53.047
  86.7900         39051.000      53.047
  86.8900         38686.000      51.856
  86.9900         38147.000      51.575
  87.0900         38002.000      51.342
  87.1900         37992.000      51.614
  87.2900         38142.000      51.352
  87.3900         37685.000      51.527
  87.4900         37897.000      51.147
  87.5900         37790.000      51.730
  87.6900         37541.000      51.827
  87.7900         37705.000      51.633
  87.8900         37881.000      52.278
  87.9900         37795.000      51.846
  88.0900         38152.000      52.048
  88.1900         38491.000      52.058
  88.2900         38864.000      52.783
  88.3900         39824.000      53.273
  88.4900         40552.000      53.722
  88.5900         40832.000      54.397
  88.6900         41015.000      53.787
  88.7900         40430.000      53.805
  88.8900         40449.000      53.777
  88.9900         39478.000      52.221
  89.0900         39006.000      52.000
  89.1900         38742.000      52.981
  89.2900         38399.000      52.479
  89.3900         37959.000      51.313
  89.4900         37311.000      51.254
  89.5900         37638.000      51.108
  89.6900         37536.000      52.440
  89.7900         37784.000      51.672
  89.8900         37408.000      51.788
  89.9900         37335.000      51.127
  90.0900         37565.000      52.307
  90.1900         37384.000      51.672
  90.2900         37642.000      51.517
  90.3900         37717.000      51.682
  90.4900         38040.000      52.048
  90.5900         38439.000      53.217
  90.6900         38855.000      52.953
  90.7900         38824.000      52.896
  90.8900         38751.000      52.906
  90.9900         38727.000      52.316
  91.0900         38213.000      51.176
  91.1900         37866.000      51.361
  91.2900         38467.000      53.198
  91.3900         38204.000      52.048
  91.4900         38032.000      51.410
  91.5900         37503.000      52.058
  91.6900         38038.000      52.297
  91.7900         37925.000      51.527
  91.8900         37444.000      51.614
  91.9900         37850.000      51.565
  92.0900         37250.000      51.293
  92.1900         37061.000      50.823
  92.2900         37392.000      51.575
  92.3900         37557.000      51.410
  92.4900         37555.000      52.259
  92.5900         37483.000      51.468
  92.6900         37308.000      51.682
  92.7900         36967.000      51.962
  92.8900         37283.000      51.575
  92.9900         37667.000      51.788
  93.0900         37524.000      51.127
  93.1900         37825.000      51.049
  93.2900         37456.000      51.546
  93.3900         37240.000      51.049
  93.4900         37363.000      52.545
  93.5900         37167.000      51.536
  93.6900         37298.000      51.371
  93.7900         37513.000      52.221
  93.8900         37644.000      51.933
  93.9900         37212.000      52.488
  94.0900         37158.000      52.038
  94.1900         37381.000      51.711
  94.2900         37360.000      50.656
  94.3900         37263.000      50.902
  94.4900         37327.000      50.882
  94.5900         37252.000      51.039
  94.6900         37600.000      51.884
  94.7900         37608.000      51.904
  94.8900         37095.000      50.675
  94.9900         37551.000      51.565
  95.0900         37301.000      51.459
  95.1900         37538.000      51.420
  95.2900         37291.000      51.245
  95.3900         37304.000      50.329
  95.4900         37567.000      52.650
  95.5900         37372.000      50.853
  95.6900         37326.000      52.240
  95.7900         37591.000      51.069
  95.8900         37949.000      51.565
  95.9900         38101.000      51.643
  96.0900         38223.000      52.240
  96.1900         38918.000      51.817
  96.2900         38877.000      51.205
  96.3900         38574.000      52.830
  96.4900         38201.000      51.614
  96.5900         38977.000      52.364
  96.6900         38731.000      52.602
  96.7900         38552.000      52.517
  96.8900         37863.000      51.817
  96.9900         37624.000      51.884
  97.0900         37826.000      51.653
  97.1900         37372.000      51.205
  97.2900         37289.000      51.323
  97.3900         37217.000      52.412
  97.4900         37227.000      52.086
  97.5900         37212.000      51.478
  97.6900         37432.000      51.585
  97.7900         36977.000      50.990
  97.8900         37306.000      50.951
  97.9900         37237.000      52.526
  98.0900         37253.000      50.912
  98.1900         37235.000      51.827
  98.2900         37176.000      51.653
  98.3900         37224.000      51.293
  98.4900         37617.000      52.297
  98.5900         37925.000      51.730
  98.6900         38235.000      51.933
  98.7900         37914.000      52.364
  98.8900         38136.000      52.707
  98.9900         38346.000      52.335
  99.0900         38290.000      52.288
  99.1900         39153.000      52.173
  99.2900         39745.000      53.028
  99.3900         40338.000      53.749
  99.4900         41216.000      54.443
  99.5900         42231.000      54.617
  99.6900         42937.000      55.200
  99.7900         42555.000      55.588
  99.8900         43116.000      55.281
  99.9900         42577.000      55.893
 100.0900         42282.000      54.295
 100.1900         42281.000      54.277
 100.2900         41101.000      54.093
 100.3900         40328.000      53.917
 100.4900         39878.000      53.768
 100.5900         39572.000      53.740
 100.6900         38865.000      52.839
 100.7900         38468.000      52.345
 100.8900         38037.000      52.249
 100.9900         37525.000      51.865
 101.0900         37318.000      51.711
 101.1900         37414.000      51.468
 101.2900         37555.000      51.769
 101.3900         37031.000      50.823
 101.4900         37629.000      51.740
 101.5900         37327.000      51.459
 101.6900         37351.000      51.439
 101.7900         37729.000      51.284
 101.8900         37206.000      52.192
 101.9900         38040.000      52.393
 102.0900         37965.000      51.186
 102.1900         37700.000      51.962
 102.2900         37800.000      52.278
 102.3900         37870.000      51.846
 102.4900         37749.000      51.303
 102.5900         37332.000      52.038
 102.6900         37456.000      51.856
 102.7900         37379.000      51.254
 102.8900         37263.000      51.449
 102.9900         37353.000      51.633
 103.0900         36944.000      51.371
 103.1900         37003.000      51.400
 103.2900         37259.000      51.323
 103.3900         37156.000      51.827
 103.4900         37160.000      51.807
 103.5900         37041.000      51.127
 103.6900         37065.000      52.010
 103.7900         37121.000      51.565
 103.8900         36802.000      51.254
 103.9900         37328.000      52.086
 104.0900         37288.000      52.048
 104.1900         37229.000      51.614
 104.2900         37036.000      50.080
 104.3900         37396.000      51.807
 104.4900         36712.000      50.863
 104.5900         37137.000      50.359
 104.6900         37088.000      50.547
 104.7900         37323.000      51.585
 104.8900         37478.000      50.813
 104.9900         37326.000      52.182
 105.0900         37255.000      50.685
 105.1900         37480.000      52.517
 105.2900         37128.000      51.633
 105.3900         37110.000      51.361
 105.4900         37669.000      51.701
 105.5900         37395.000      51.127
 105.6900         37393.000      52.058
 105.7900         37341.000      51.846
 105.8900         37505.000      51.507
 105.9900         37676.000      50.951
 106.0900         37580.000      51.643
 106.1900         37731.000      51.575
 106.2900         37486.000      50.980
 106.3900         38196.000      52.450
 106.4900         38794.000      51.875
 106.5900         39784.000      53.516
 106.6900         41121.000      54.222
 106.7900         43464.000      55.893
 106.8900         45951.000      56.789
 106.9900         49799.000      59.666
 107.0900         52699.000      61.066
 107.1900         56702.000      63.592
 107.2900         60494.000      65.658
 107.3900         65743.000      67.971
 107.4900         71902.000      71.246
 107.5900         77761.000      74.081
 107.6900         82899.000      77.414
 107.7900         89192.000      79.624
 107.8900         95211.000      82.164
 107.9900        102684.000      85.633
 108.0900        108153.000      87.647
 108.1900        112761.000      88.510
 108.2900        115104.000      90.559
 108.3900        115667.000      91.159
 108.4900        115318.000      91.176
 108.5900        113285.000      90.017
 108.6900        111443.000      89.129
 108.7900        107387.000      88.080
 108.8900         99309.000      84.935
 108.9900         91022.000      80.181
 109.0900         83347.000      76.837
 109.1900         78207.000      74.041
 109.2900         75090.000      73.048
 109.3900         70306.000      70.370
 109.4900         64565.000      67.668
 109.5900         58075.000      63.875
 109.6900         53354.000      61.278
 109.7900         48694.000      58.779
 109.8900         45363.000      56.903
 109.9900         42915.000      55.812
 110.0900         41543.000      54.424
 110.1900         40208.000      53.451
 110.2900         39337.000      53.376
 110.3900         38366.000      52.163
 110.4900         38399.000      52.612
 110.5900         37815.000      52.154
 110.6900         37387.000      51.439
 110.7900         37899.000      51.942
 110.8900         37114.000      52.134
 110.9900         36996.000      51.166
 111.0900         37412.000      51.371
 111.1900         36950.000      51.672
 111.2900         37076.000      51.962
 111.3900         37262.000      51.147
 111.4900         36822.000      50.922
 111.5900         37069.000      51.235
 111.6900         37370.000      51.604
 111.7900         36995.000      51.933
 111.8900         37366.000      51.730
 111.9900         37267.000      52.355
 112.0900         36984.000      52.182
 112.1900         37196.000      51.400
 112.2900         37194.000      51.923
 112.3900         37207.000      50.606
 112.4900         37506.000      51.400
 112.5900         37371.000      52.125
 112.6900         37019.000      51.039
 112.7900         37895.000      51.332
 112.8900         37653.000      52.125
 112.9900         37872.000      51.459
 113.0900         37741.000      51.740
 113.1900         37605.000      52.086
 113.2900         37646.000      51.264
 113.3900         37772.000      51.740
 113.4900         37962.000      51.400
 113.5900         37915.000      51.575
 113.6900         38251.000      52.192
 113.7900         37931.000      51.633
 113.8900         37782.000      52.058
 113.9900         37589.000      50.784
 114.0900         38036.000      52.678
 114.1900         37850.000      52.259
 114.2900         37541.000      51.788
 114.3900         37431.000      51.371
 114.4900         37615.000      52.096
 114.5900         37148.000      52.307
 114.6900         36790.000      51.029
 114.7900         36976.000      52.115
 114.8900         36883.000      51.352
 114.9900         36860.000      51.361
 115.0900         36962.000      50.705
 115.1900         36591.000      50.090
 115.2900         36357.000      51.575
 115.3900         36254.000      51.205
 115.4900         36323.000      50.517
 115.5900         36658.000      50.359
 115.6900         36715.000      51.284
 115.7900         36416.000      51.020
 115.8900         36287.000      50.537
 115.9900         36188.000      49.406
 116.0900         36607.000      51.235
 116.1900         36451.000      49.970
 116.2900         36253.000      51.740
 116.3900         36792.000      50.931
 116.4900         36621.000      51.371
 116.5900         36473.000      51.488
 116.6900         36278.000      51.449
 116.7900         36429.000      51.118
 116.8900         36729.000      50.922
 116.9900         36005.000      49.920
 117.0900         36419.000      50.705
 117.1900         36336.000      50.863
 117.2900         36007.000      50.656
 117.3900         36365.000      50.577
 117.4900         36536.000      51.624
 117.5900         36244.000      50.833
 117.6900         36529.000      51.488
 117.7900         36687.000      50.971
 117.8900         35993.000      49.538
 117.9900         36218.000      50.379
 118.0900         36272.000      51.332
 118.1900         36021.000      51.029
 118.2900         36277.000      50.912
 118.3900         36257.000      50.567
 118.4900         36397.000      50.813
 118.5900         36229.000      49.990
 118.6900         36580.000      51.352
 118.7900         36283.000      51.498
 118.8900         36315.000      51.342
 118.9900         36350.000      50.567
 119.0900         36095.000      51.293
 119.1900         36417.000      51.166
 119.2900         36574.000      50.537
 119.3900         36467.000      50.863
 119.4900         36395.000      51.127
 119.5900         36386.000      50.229
 119.6900         36393.000      51.720
 119.7900         36457.000      50.140
 119.8900         36534.000      51.059
 119.9900         36291.000      51.137
 120.0900         36799.000      51.323
 120.1900         36534.000      51.264
 120.2900         36726.000      51.069
 120.3900         36931.000      51.740
 120.4900         36839.000      51.078
 120.5900         36633.000      51.088
 120.6900         36887.000      51.166
 120.7900         36814.000      50.388
 120.8900         36945.000      51.342
 120.9900         36838.000      51.186
 121.0900         37581.000      50.872
 121.1900         37981.000      51.933
 121.2900         38573.000      52.526
 121.3900         40043.000      53.009
 121.4900         41750.000      54.809
 121.5900         43909.000      55.946
 121.6900         46931.000      57.671
 121.7900         50775.000      59.447
 121.8900         55503.000      63.435
 121.9900         60810.000      65.833
 122.0900         66099.000      68.942
 122.1900         71476.000      71.561
 122.2900         77453.000      74.592
 122.3900         82514.000      77.279
 122.4900         89387.000      79.063
 122.5900         97342.000      83.690
 122.6900        106906.000      87.184
 122.7900        117537.000      92.076
 122.8900        126893.000      95.242
 122.9900        135812.000      98.301
 123.0900        144320.000     101.917
 123.1900        154457.000     105.162
 123.2900        165649.000     108.743
 123.3900        177319.000     112.965
 123.4900        187815.000     114.856
 123.5900        199196.000     120.104
 123.6900        205453.000     120.661
 123.7900        211695.000     122.438
 123.8900        216217.000     124.109
 123.9900        218264.000     124.788
 124.0900        218791.000     125.746
 124.1900        218020.000     125.841
 124.2900        215603.000     123.616
 124.3900        211490.000     123.329
 124.4900        205637.000     121.676
 124.5900        195567.000     117.962
 124.6900        182608.000     114.337
 124.7900        165135.000     108.379
 124.8900        151122.000     103.668
 124.9900        139358.000     100.707
 125.0900        131858.000      96.778
 125.1900        126699.000      95.577
 125.2900        120889.000      93.204
 125.3900        113606.000      90.322
 125.4900        104396.000      86.284
 125.5900         94896.000      81.308
 125.6900         84001.000      77.318
 125.7900         75248.000      72.794
 125.8900         68011.000      69.986
 125.9900         62179.000      66.317
 126.0900         56566.000      63.953
 126.1900         52201.000      61.351
 126.2900         48740.000      58.258
 126.3900         46671.000      58.344
 126.4900         45259.000      56.754
 126.5900         43623.000      55.946
 126.6900         41836.000      54.809
 126.7900         41575.000      53.861
 126.8900         40799.000      54.277
 126.9900         40250.000      53.348
 127.0900         39750.000      52.374
 127.1900         38585.000      52.115
 127.2900         38610.000      52.335
 127.3900         37844.000      51.846
 127.4900         37635.000      51.029
 127.5900         36949.000      50.951
 127.6900         37066.000      51.332
 127.7900         36673.000      51.157
 127.8900         37109.000      51.682
 127.9900         36151.000      50.774
 128.0900         36605.000      50.754
 128.1900         36206.000      50.279
 128.2900         35990.000      51.108
 128.3900         36059.000      50.744
 128.4900         35869.000      50.557
 128.5900             7.000       1.000
 128.6900             8.000       1.000
