XYDATA SparksLave Co3O4-quenched_900_1.5K 
INTER        1       1       0     0.100000
TEMP       1.66630      1.66920      1.50000
! d1b Date 14-Nov-11 Time 14:21:37 Run 129961 129948>129961
! d1b Date 14-Nov-11 Time 14:21:37 Run 129961 129948>129961
! Monitor/counts, Counting time/sec:  1.26942e+007 1.26942e+007
   0.7900             3.000       1.000
   0.8900             5.000       1.000
   0.9900          2313.000      12.649
   1.0900          2178.000      13.000
   1.1900          2083.000      12.207
   1.2900          2205.000      12.767
   1.3900          2235.000      12.207
   1.4900          2228.000      12.450
   1.5900          2306.000      13.416
   1.6900          2319.000      13.892
   1.7900          2946.000      14.832
   1.8900          4657.000      17.720
   1.9900          7688.000      23.130
   2.0900         10507.000      27.423
   2.1900         13490.000      31.686
   2.2900         16462.000      34.453
   2.3900         21089.000      39.281
   2.4900         25747.000      43.370
   2.5900         30307.000      45.651
   2.6900         34684.000      49.396
   2.7900         38187.000      52.962
   2.8900         41702.000      55.009
   2.9900         44941.000      57.454
   3.0900         47934.000      59.220
   3.1900         51493.000      60.787
   3.2900         53416.000      61.506
   3.3900         53834.000      61.262
   3.4900         53292.000      61.725
   3.5900         52934.000      61.074
   3.6900         51787.000      60.200
   3.7900         51617.000      61.016
   3.8900         51691.000      60.349
   3.9900         49176.000      58.941
   4.0900         50296.000      59.557
   4.1900         50641.000      60.737
   4.2900         50815.000      60.448
   4.3900         52216.000      61.563
   4.4900         52802.000      61.490
   4.5900         54232.000      62.554
   4.6900         55715.000      62.258
   4.7900         57288.000      63.640
   4.8900         58814.000      65.169
   4.9900         60459.000      65.460
   5.0900         62135.000      66.445
   5.1900         63708.000      67.639
   5.2900         64851.000      67.209
   5.3900         67027.000      69.195
   5.4900         68394.000      69.520
   5.5900         70684.000      71.106
   5.6900         71449.000      71.056
   5.7900         72638.000      71.715
   5.8900         74888.000      73.389
   5.9900         74815.000      72.966
   6.0900         75737.000      73.451
   6.1900         75938.000      73.675
   6.2900         75741.000      73.110
   6.3900         75883.000      72.966
   6.4900         75833.000      73.041
   6.5900         75165.000      73.055
   6.6900         75078.000      74.027
   6.7900         74478.000      72.519
   6.8900         73769.000      73.294
   6.9900         73594.000      72.319
   7.0900         72999.000      73.034
   7.1900         71609.000      71.302
   7.2900         71386.000      70.661
   7.3900         70499.000      71.393
   7.4900         69928.000      70.908
   7.5900         68989.000      70.534
   7.6900         67540.000      69.217
   7.7900         67203.000      68.862
   7.8900         65749.000      68.206
   7.9900         65279.000      68.746
   8.0900         63881.000      67.594
   8.1900         63319.000      68.213
   8.2900         62782.000      66.933
   8.3900         61295.000      66.626
   8.4900         60352.000      65.353
   8.5900         59884.000      64.537
   8.6900         58406.000      64.498
   8.7900         57690.000      64.452
   8.8900         56260.000      63.992
   8.9900         55607.000      63.427
   9.0900         54944.000      63.222
   9.1900         53846.000      61.335
   9.2900         52942.000      62.258
   9.3900         52480.000      61.522
   9.4900         51115.000      60.200
   9.5900         50270.000      60.075
   9.6900         49112.000      59.599
   9.7900         47802.000      59.228
   9.8900         47379.000      58.395
   9.9900         46191.000      57.732
  10.0900         45342.000      56.613
  10.1900         44755.000      56.321
  10.2900         43830.000      56.701
  10.3900         42599.000      54.845
  10.4900         42117.000      54.553
  10.5900         41153.000      54.544
  10.6900         40462.000      53.188
  10.7900         40216.000      53.572
  10.8900         39709.000      53.666
  10.9900         39802.000      53.917
  11.0900         39001.000      52.934
  11.1900         39116.000      52.981
  11.2900         38837.000      52.868
  11.3900         38726.000      53.245
  11.4900         38761.000      52.460
  11.5900         38972.000      53.320
  11.6900         39362.000      53.198
  11.7900         39123.000      53.028
  11.8900         39150.000      52.460
  11.9900         39069.000      53.188
  12.0900         38944.000      52.915
  12.1900         38618.000      52.745
  12.2900         38858.000      52.820
  12.3900         38370.000      52.583
  12.4900         38334.000      52.048
  12.5900         38624.000      52.583
  12.6900         38403.000      52.335
  12.7900         38596.000      53.432
  12.8900         38654.000      53.085
  12.9900         38635.000      53.963
  13.0900         38146.000      52.536
  13.1900         38457.000      51.923
  13.2900         38341.000      52.811
  13.3900         38763.000      53.217
  13.4900         38371.000      52.915
  13.5900         38585.000      53.367
  13.6900         38210.000      52.173
  13.7900         38477.000      53.160
  13.8900         38311.000      51.923
  13.9900         38545.000      52.934
  14.0900         38378.000      52.631
  14.1900         38556.000      53.395
  14.2900         38266.000      52.783
  14.3900         38385.000      51.933
  14.4900         38459.000      52.735
  14.5900         38537.000      53.348
  14.6900         38401.000      52.981
  14.7900         38388.000      52.962
  14.8900         38366.000      52.650
  14.9900         38131.000      52.086
  15.0900         38686.000      53.028
  15.1900         38739.000      52.488
  15.2900         40378.000      53.759
  15.3900         42049.000      54.608
  15.4900         42597.000      54.882
  15.5900         41223.000      54.599
  15.6900         40278.000      54.617
  15.7900         38969.000      51.643
  15.8900         38686.000      52.915
  15.9900         38866.000      52.849
  16.0900         38746.000      52.010
  16.1900         38716.000      53.009
  16.2900         38637.000      52.230
  16.3900         38781.000      52.555
  16.4900         38532.000      52.374
  16.5900         38448.000      52.716
  16.6900         38936.000      52.887
  16.7900         38568.000      52.450
  16.8900         38535.000      51.400
  16.9900         38624.000      52.096
  17.0900         38475.000      52.583
  17.1900         38696.000      52.830
  17.2900         38499.000      52.364
  17.3900         38475.000      52.086
  17.4900         38607.000      53.057
  17.5900         39037.000      53.292
  17.6900         39167.000      52.792
  17.7900         40076.000      52.849
  17.8900         40949.000      54.772
  17.9900         40874.000      53.954
  18.0900         40050.000      54.120
  18.1900         38894.000      53.085
  18.2900         39017.000      52.906
  18.3900         39016.000      53.170
  18.4900         38673.000      53.310
  18.5900         39081.000      52.545
  18.6900         38784.000      52.479
  18.7900         39450.000      53.432
  18.8900         39119.000      53.245
  18.9900         38648.000      52.297
  19.0900         38978.000      52.402
  19.1900         38593.000      52.335
  19.2900         39009.000      52.659
  19.3900         38744.000      52.583
  19.4900         38634.000      53.226
  19.5900         38894.000      51.942
  19.6900         39014.000      51.701
  19.7900         39031.000      52.943
  19.8900         39162.000      53.470
  19.9900         39087.000      52.981
  20.0900         39077.000      52.849
  20.1900         39150.000      52.115
  20.2900         39123.000      53.028
  20.3900         38604.000      52.345
  20.4900         39514.000      53.488
  20.5900         39264.000      52.839
  20.6900         39531.000      52.972
  20.7900         39939.000      52.858
  20.8900         39466.000      53.104
  20.9900         39372.000      53.582
  21.0900         39524.000      53.019
  21.1900         39632.000      53.301
  21.2900         38854.000      52.583
  21.3900         39237.000      53.357
  21.4900         39298.000      52.545
  21.5900         39290.000      52.650
  21.6900         39159.000      53.235
  21.7900         39320.000      53.273
  21.8900         39625.000      52.915
  21.9900         39678.000      53.470
  22.0900         39458.000      53.516
  22.1900         39131.000      52.906
  22.2900         39084.000      53.198
  22.3900         39075.000      52.915
  22.4900         39253.000      52.583
  22.5900         39590.000      52.650
  22.6900         39401.000      53.151
  22.7900         39343.000      53.507
  22.8900         39768.000      54.139
  22.9900         39368.000      52.355
  23.0900         39584.000      53.684
  23.1900         39373.000      54.470
  23.2900         39425.000      52.393
  23.3900         39449.000      53.432
  23.4900         39618.000      53.488
  23.5900         39353.000      52.962
  23.6900         39397.000      53.217
  23.7900         39933.000      53.019
  23.8900         40185.000      53.273
  23.9900         40265.000      53.038
  24.0900         40104.000      53.535
  24.1900         39601.000      53.038
  24.2900         39530.000      53.479
  24.3900         39469.000      53.917
  24.4900         39667.000      53.254
  24.5900         39897.000      52.991
  24.6900         39172.000      53.188
  24.7900         39432.000      53.814
  24.8900         39892.000      52.802
  24.9900         39766.000      53.572
  25.0900         39695.000      53.796
  25.1900         39957.000      53.526
  25.2900         39849.000      53.301
  25.3900         40706.000      53.814
  25.4900         40929.000      54.185
  25.5900         40715.000      54.000
  25.6900         40460.000      53.991
  25.7900         40322.000      53.805
  25.8900         40068.000      53.759
  25.9900         39748.000      53.329
  26.0900         39892.000      53.647
  26.1900         40544.000      53.600
  26.2900         39979.000      54.305
  26.3900         40141.000      53.047
  26.4900         40424.000      54.009
  26.5900         40179.000      53.610
  26.6900         40152.000      54.102
  26.7900         39942.000      53.179
  26.8900         40564.000      53.619
  26.9900         40154.000      53.104
  27.0900         40279.000      53.591
  27.1900         40081.000      53.009
  27.2900         40700.000      54.148
  27.3900         40242.000      53.898
  27.4900         40654.000      53.694
  27.5900         40532.000      53.526
  27.6900         40423.000      54.083
  27.7900         40650.000      54.936
  27.8900         40131.000      53.085
  27.9900         40601.000      54.222
  28.0900         40394.000      53.198
  28.1900         40792.000      53.488
  28.2900         40793.000      55.064
  28.3900         40718.000      54.157
  28.4900         40894.000      55.290
  28.5900         40714.000      53.759
  28.6900         40686.000      53.787
  28.7900         41172.000      54.498
  28.8900         40918.000      53.889
  28.9900         41090.000      54.120
  29.0900         41274.000      54.955
  29.1900         40845.000      53.656
  29.2900         40896.000      53.981
  29.3900         41049.000      53.991
  29.4900         40720.000      53.926
  29.5900         40922.000      55.911
  29.6900         41344.000      54.763
  29.7900         41843.000      55.507
  29.8900         43347.000      55.579
  29.9900         44009.000      57.044
  30.0900         43682.000      55.516
  30.1900         42097.000      55.615
  30.2900         41958.000      54.111
  30.3900         41853.000      54.617
  30.4900         42148.000      55.218
  30.5900         42273.000      55.606
  30.6900         43071.000      55.758
  30.7900         43368.000      56.107
  30.8900         45789.000      57.236
  30.9900         53801.000      62.594
  31.0900         81332.000      77.389
  31.1900        136434.000      99.096
  31.2900        191358.000     117.452
  31.3900        210855.000     123.252
  31.4900        173413.000     111.167
  31.5900        110673.000      89.577
  31.6900         66141.000      68.666
  31.7900         48655.000      59.144
  31.8900         43819.000      56.604
  31.9900         43015.000      55.498
  32.0900         42801.000      56.249
  32.1900         42539.000      55.408
  32.2900         42234.000      54.973
  32.3900         41939.000      55.045
  32.4900         42227.000      54.553
  32.5900         41710.000      54.717
  32.6900         41672.000      54.909
  32.7900         41682.000      54.809
  32.8900         41608.000      54.111
  32.9900         41923.000      54.918
  33.0900         41521.000      54.918
  33.1900         41841.000      55.091
  33.2900         41625.000      54.845
  33.3900         41121.000      53.357
  33.4900         41335.000      54.754
  33.5900         41122.000      54.525
  33.6900         41465.000      54.139
  33.7900         41415.000      54.351
  33.8900         41751.000      54.818
  33.9900         41529.000      54.681
  34.0900         42102.000      54.332
  34.1900         42689.000      55.009
  34.2900         42409.000      55.723
  34.3900         41917.000      54.415
  34.4900         41893.000      55.516
  34.5900         41600.000      54.727
  34.6900         41396.000      54.305
  34.7900         41202.000      55.027
  34.8900         41411.000      53.628
  34.9900         41203.000      54.927
  35.0900         41376.000      55.453
  35.1900         41716.000      54.277
  35.2900         41613.000      54.599
  35.3900         41548.000      54.736
  35.4900         41773.000      54.663
  35.5900         42076.000      54.498
  35.6900         42204.000      54.800
  35.7900         42215.000      54.690
  35.8900         43557.000      56.956
  35.9900         48037.000      59.473
  36.0900         61034.000      67.246
  36.1900         87017.000      77.942
  36.2900        115495.000      91.575
  36.3900        129402.000      96.706
  36.4900        118644.000      92.016
  36.5900         89441.000      79.768
  36.6900         61842.000      66.813
  36.7900         47888.000      58.009
  36.8900         43359.000      55.018
  36.9900         42658.000      54.818
  37.0900         42113.000      54.791
  37.1900         41542.000      55.127
  37.2900         41277.000      54.148
  37.3900         41706.000      54.268
  37.4900         41424.000      54.433
  37.5900         41324.000      54.544
  37.6900         40891.000      54.397
  37.7900         41412.000      53.638
  37.8900         41159.000      54.415
  37.9900         40680.000      54.222
  38.0900         40674.000      54.452
  38.1900         40898.000      53.619
  38.2900         40932.000      54.653
  38.3900         40718.000      53.879
  38.4900         40612.000      54.176
  38.5900         40771.000      54.286
  38.6900         40397.000      53.235
  38.7900         40716.000      54.222
  38.8900         40675.000      53.563
  38.9900         40218.000      54.157
  39.0900         40483.000      54.074
  39.1900         40814.000      54.507
  39.2900         40826.000      54.185
  39.3900         40265.000      53.113
  39.4900         40901.000      54.019
  39.5900         41093.000      54.000
  39.6900         41414.000      54.470
  39.7900         42121.000      55.353
  39.8900         41916.000      54.489
  39.9900         41105.000      54.305
  40.0900         40822.000      53.554
  40.1900         40300.000      53.019
  40.2900         40576.000      54.046
  40.3900         41166.000      53.684
  40.4900         40598.000      54.378
  40.5900         40716.000      53.879
  40.6900         40697.000      53.544
  40.7900         41017.000      54.918
  40.8900         41199.000      53.740
  40.9900         40795.000      54.231
  41.0900         39919.000      53.226
  41.1900         39848.000      53.731
  41.2900         40372.000      54.635
  41.3900         40310.000      53.814
  41.4900         40283.000      54.129
  41.5900         40120.000      53.852
  41.6900         40107.000      52.943
  41.7900         40400.000      53.217
  41.8900         40209.000      54.507
  41.9900         39825.000      53.348
  42.0900         40066.000      53.749
  42.1900         40607.000      53.935
  42.2900         40341.000      53.675
  42.3900         40244.000      53.842
  42.4900         40012.000      53.329
  42.5900         40128.000      53.348
  42.6900         40174.000      53.712
  42.7900         40444.000      53.749
  42.8900         40225.000      53.516
  42.9900         40032.000      54.065
  43.0900         39913.000      53.348
  43.1900         39689.000      52.678
  43.2900         40051.000      53.759
  43.3900         40154.000      53.235
  43.4900         39585.000      52.868
  43.5900         39891.000      53.151
  43.6900         40535.000      53.075
  43.7900         39955.000      53.935
  43.8900         39932.000      53.963
  43.9900         40208.000      53.879
  44.0900         40128.000      53.805
  44.1900         39986.000      54.139
  44.2900         39839.000      53.944
  44.3900         40157.000      54.268
  44.4900         40572.000      53.600
  44.5900         40020.000      53.582
  44.6900         39815.000      53.907
  44.7900         39876.000      54.231
  44.8900         39926.000      53.610
  44.9900         40375.000      53.638
  45.0900         40409.000      54.046
  45.1900         40479.000      54.074
  45.2900         39557.000      53.749
  45.3900         39906.000      52.716
  45.4900         39807.000      53.432
  45.5900         40054.000      53.516
  45.6900         39732.000      53.907
  45.7900         40666.000      54.461
  45.8900         39866.000      53.479
  45.9900         39883.000      53.470
  46.0900         39636.000      53.935
  46.1900         40145.000      53.749
  46.2900         39997.000      53.666
  46.3900         40117.000      52.962
  46.4900         39937.000      52.981
  46.5900         39878.000      53.703
  46.6900         39811.000      53.413
  46.7900         40193.000      53.898
  46.8900         39971.000      52.583
  46.9900         40287.000      53.861
  47.0900         39862.000      53.094
  47.1900         39733.000      52.868
  47.2900         40056.000      53.749
  47.3900         40137.000      55.172
  47.4900         40395.000      53.132
  47.5900         40622.000      54.065
  47.6900         42476.000      54.854
  47.7900         45560.000      56.886
  47.8900         46413.000      56.710
  47.9900         45116.000      56.851
  48.0900         42296.000      54.498
  48.1900         40452.000      54.046
  48.2900         39916.000      53.535
  48.3900         40022.000      53.600
  48.4900         39621.000      53.694
  48.5900         39833.000      54.111
  48.6900         39798.000      52.972
  48.7900         40010.000      53.814
  48.8900         39563.000      54.000
  48.9900         39774.000      53.367
  49.0900         39872.000      52.830
  49.1900         40020.000      54.148
  49.2900         39767.000      52.669
  49.3900         40214.000      53.582
  49.4900         40130.000      53.619
  49.5900         39768.000      52.735
  49.6900         39757.000      53.879
  49.7900         40095.000      54.332
  49.8900         39811.000      53.198
  49.9900         40124.000      53.526
  50.0900         39808.000      53.423
  50.1900         39999.000      53.235
  50.2900         40186.000      54.378
  50.3900         40136.000      53.423
  50.4900         40137.000      54.534
  50.5900         40115.000      53.320
  50.6900         39881.000      53.395
  50.7900         40230.000      53.038
  50.8900         40000.000      54.295
  50.9900         39892.000      53.357
  51.0900         40315.000      53.954
  51.1900         40235.000      53.600
  51.2900         39843.000      53.170
  51.3900         40038.000      54.525
  51.4900         40151.000      53.749
  51.5900         40045.000      53.488
  51.6900         40401.000      53.075
  51.7900         40785.000      54.213
  51.8900         42126.000      54.699
  51.9900         45318.000      56.613
  52.0900         50025.000      60.481
  52.1900         57461.000      63.820
  52.2900         69970.000      71.218
  52.3900         76263.000      74.773
  52.4900         74253.000      72.415
  52.5900         67873.000      69.864
  52.6900         56810.000      63.174
  52.7900         47298.000      57.637
  52.8900         42362.000      56.160
  52.9900         41209.000      54.148
  53.0900         40847.000      53.647
  53.1900         40452.000      53.619
  53.2900         40612.000      54.093
  53.3900         40078.000      53.395
  53.4900         40024.000      53.179
  53.5900         40120.000      53.488
  53.6900         40198.000      54.056
  53.7900         40059.000      53.628
  53.8900         40224.000      54.111
  53.9900         40406.000      53.675
  54.0900         40223.000      54.129
  54.1900         40028.000      54.157
  54.2900         40038.000      53.254
  54.3900         39971.000      53.600
  54.4900         40011.000      52.697
  54.5900         40053.000      53.141
  54.6900         40113.000      53.170
  54.7900         40252.000      53.722
  54.8900         40622.000      54.222
  54.9900         41250.000      55.064
  55.0900         41108.000      54.589
  55.1900         40943.000      54.927
  55.2900         40605.000      54.203
  55.3900         40773.000      54.663
  55.4900         40477.000      53.703
  55.5900         40846.000      54.791
  55.6900         40303.000      53.889
  55.7900         40170.000      53.160
  55.8900         40808.000      54.626
  55.9900         40729.000      54.516
  56.0900         40508.000      53.282
  56.1900         40441.000      53.861
  56.2900         40196.000      53.395
  56.3900         39994.000      54.314
  56.4900         40114.000      52.858
  56.5900         40409.000      54.028
  56.6900         40463.000      53.917
  56.7900         40328.000      53.488
  56.8900         40466.000      53.582
  56.9900         40450.000      52.877
  57.0900         40059.000      53.759
  57.1900         40374.000      53.656
  57.2900         39984.000      53.000
  57.3900         40223.000      53.498
  57.4900         39883.000      54.544
  57.5900         39999.000      54.166
  57.6900         40262.000      54.074
  57.7900         40252.000      53.498
  57.8900         40289.000      54.644
  57.9900         40061.000      52.877
  58.0900         40082.000      52.981
  58.1900         39940.000      54.626
  58.2900         40295.000      53.432
  58.3900         40239.000      54.498
  58.4900         39821.000      53.647
  58.5900         40442.000      53.796
  58.6900         40457.000      54.166
  58.7900         40283.000      53.254
  58.8900         40725.000      52.991
  58.9900         40194.000      54.818
  59.0900         40665.000      54.028
  59.1900         40313.000      53.740
  59.2900         40247.000      53.470
  59.3900         40460.000      54.120
  59.4900         40554.000      54.681
  59.5900         40517.000      54.046
  59.6900         40788.000      53.926
  59.7900         40597.000      52.754
  59.8900         40107.000      53.926
  59.9900         40686.000      53.889
  60.0900         40923.000      54.360
  60.1900         40776.000      54.323
  60.2900         40591.000      53.991
  60.3900         40504.000      53.972
  60.4900         40350.000      53.235
  60.5900         40626.000      55.362
  60.6900         40520.000      53.907
  60.7900         41001.000      53.554
  60.8900         40752.000      54.927
  60.9900         40737.000      54.111
  61.0900         41295.000      53.591
  61.1900         41305.000      54.791
  61.2900         41353.000      55.109
  61.3900         42022.000      55.027
  61.4900         41954.000      53.675
  61.5900         43450.000      56.152
  61.6900         45425.000      57.035
  61.7900         50353.000      60.622
  61.8900         56529.000      63.246
  61.9900         65012.000      68.323
  62.0900         74588.000      73.648
  62.1900         86313.000      78.956
  62.2900         96328.000      82.462
  62.3900         97021.000      83.815
  62.4900         93588.000      82.091
  62.5900         85460.000      78.854
  62.6900         74437.000      73.151
  62.7900         62432.000      66.798
  62.8900         51792.000      61.205
  62.9900         45800.000      57.585
  63.0900         43150.000      55.884
  63.1900         42120.000      54.936
  63.2900         41776.000      54.222
  63.3900         41452.000      54.037
  63.4900         41418.000      54.489
  63.5900         41296.000      54.369
  63.6900         41368.000      53.470
  63.7900         41798.000      55.000
  63.8900         41306.000      54.900
  63.9900         41534.000      55.009
  64.0900         41600.000      54.378
  64.1900         41681.000      55.606
  64.2900         42128.000      54.525
  64.3900         42222.000      54.305
  64.4900         43273.000      55.281
  64.5900         45249.000      57.061
  64.6900         51574.000      61.156
  64.7900         66946.000      69.628
  64.8900         92443.000      80.895
  64.9900        125142.000      94.144
  65.0900        160282.000     106.892
  65.1900        200778.000     120.208
  65.2900        254327.000     135.126
  65.3900        291996.000     144.769
  65.4900        290489.000     144.714
  65.5900        273807.000     139.732
  65.6900        246569.000     133.132
  65.7900        204585.000     121.897
  65.8900        154220.000     105.494
  65.9900        105153.000      87.189
  66.0900         71802.000      72.560
  66.1900         55380.000      62.857
  66.2900         48518.000      58.146
  66.3900         44577.000      56.152
  66.4900         42556.000      55.272
  66.5900         41272.000      55.091
  66.6900         41594.000      53.777
  66.7900         41136.000      54.827
  66.8900         40439.000      53.423
  66.9900         40487.000      54.231
  67.0900         40480.000      54.065
  67.1900         40352.000      53.619
  67.2900         40183.000      53.647
  67.3900         39976.000      53.113
  67.4900         40627.000      54.323
  67.5900         41524.000      54.498
  67.6900         42300.000      54.809
  67.7900         42068.000      55.281
  67.8900         42474.000      55.371
  67.9900         41344.000      54.479
  68.0900         40859.000      54.213
  68.1900         40551.000      53.981
  68.2900         39769.000      53.591
  68.3900         39730.000      53.348
  68.4900         39168.000      52.517
  68.5900         39670.000      53.226
  68.6900         39848.000      53.656
  68.7900         39439.000      52.202
  68.8900         39270.000      53.085
  68.9900         39383.000      53.451
  69.0900         39177.000      53.085
  69.1900         39079.000      53.123
  69.2900         39085.000      53.638
  69.3900         39254.000      53.731
  69.4900         38935.000      52.669
  69.5900         39137.000      52.735
  69.6900         39197.000      52.972
  69.7900         38836.000      52.631
  69.8900         39305.000      52.545
  69.9900         38891.000      52.934
  70.0900         39066.000      53.198
  70.1900         39137.000      52.972
  70.2900         38421.000      52.019
  70.3900         38419.000      52.991
  70.4900         39061.000      52.297
  70.5900         39353.000      52.981
  70.6900         38596.000      53.572
  70.7900         38667.000      52.707
  70.8900         38980.000      53.113
  70.9900         38924.000      52.716
  71.0900         39445.000      52.498
  71.1900         39590.000      53.028
  71.2900         40077.000      53.554
  71.3900         40072.000      53.656
  71.4900         40645.000      53.879
  71.5900         41343.000      55.045
  71.6900         41617.000      53.870
  71.7900         41729.000      54.973
  71.8900         42710.000      54.927
  71.9900         42807.000      54.736
  72.0900         43066.000      56.116
  72.1900         43367.000      54.964
  72.2900         43298.000      55.749
  72.3900         43235.000      54.754
  72.4900         42977.000      55.353
  72.5900         42592.000      56.000
  72.6900         41404.000      53.591
  72.7900         41319.000      54.093
  72.8900         40856.000      53.842
  72.9900         40156.000      53.991
  73.0900         40003.000      53.870
  73.1900         40001.000      53.310
  73.2900         39869.000      53.395
  73.3900         39666.000      53.694
  73.4900         39870.000      53.703
  73.5900         40745.000      54.259
  73.6900         40570.000      54.571
  73.7900         40618.000      53.731
  73.8900         40269.000      53.226
  73.9900         39501.000      53.009
  74.0900         38940.000      52.326
  74.1900         39238.000      53.694
  74.2900         38339.000      53.404
  74.3900         38673.000      52.877
  74.4900         38929.000      52.792
  74.5900         38364.000      52.669
  74.6900         38241.000      51.527
  74.7900         38519.000      52.326
  74.8900         38906.000      53.132
  74.9900         38498.000      52.555
  75.0900         38839.000      52.440
  75.1900         38578.000      52.297
  75.2900         38807.000      52.545
  75.3900         38943.000      52.678
  75.4900         38776.000      52.221
  75.5900         38938.000      53.740
  75.6900         38883.000      53.104
  75.7900         39433.000      53.282
  75.8900         39527.000      52.697
  75.9900         40251.000      53.963
  76.0900         41019.000      54.516
  76.1900         43089.000      55.767
  76.2900         48162.000      58.686
  76.3900         59030.000      65.788
  76.4900         75055.000      73.027
  76.5900         94968.000      82.383
  76.6900        119182.000      92.574
  76.7900        145098.000     101.872
  76.8900        170427.000     110.349
  76.9900        207456.000     121.544
  77.0900        243317.000     132.272
  77.1900        265002.000     137.426
  77.2900        266196.000     138.040
  77.3900        256700.000     136.096
  77.4900        237104.000     131.594
  77.5900        207939.000     123.028
  77.6900        174437.000     112.574
  77.7900        143751.000     101.321
  77.8900        109607.000      89.331
  77.9900         79673.000      75.485
  78.0900         61340.000      66.708
  78.1900         51254.000      61.539
  78.2900         46105.000      58.103
  78.3900         42742.000      54.608
  78.4900         41234.000      55.027
  78.5900         40000.000      54.065
  78.6900         39352.000      53.301
  78.7900         39102.000      52.726
  78.8900         38984.000      52.374
  78.9900         38862.000      52.773
  79.0900         38813.000      53.198
  79.1900         38753.000      52.688
  79.2900         39199.000      52.678
  79.3900         39233.000      52.517
  79.4900         39741.000      53.367
  79.5900         39074.000      52.906
  79.6900         39084.000      52.383
  79.7900         38813.000      52.297
  79.8900         38287.000      53.085
  79.9900         38329.000      52.421
  80.0900         38127.000      53.123
  80.1900         37900.000      52.393
  80.2900         38040.000      52.650
  80.3900         37384.000      52.173
  80.4900         37798.000      51.923
  80.5900         38024.000      52.077
  80.6900         37689.000      51.933
  80.7900         37287.000      52.364
  80.8900         37597.000      51.865
  80.9900         37467.000      51.536
  81.0900         37715.000      53.217
  81.1900         37495.000      51.749
  81.2900         37333.000      51.624
  81.3900         37019.000      51.546
  81.4900         37448.000      51.691
  81.5900         37249.000      51.517
  81.6900         37177.000      51.556
  81.7900         37254.000      51.078
  81.8900         37090.000      51.778
  81.9900         37320.000      52.230
  82.0900         37928.000      52.593
  82.1900         37650.000      52.019
  82.2900         37094.000      51.836
  82.3900         37517.000      51.701
  82.4900         37651.000      52.507
  82.5900         37501.000      52.924
  82.6900         37376.000      51.507
  82.7900         37345.000      51.749
  82.8900         38003.000      51.575
  82.9900         37847.000      52.278
  83.0900         37888.000      52.067
  83.1900         37905.000      52.038
  83.2900         37404.000      51.701
  83.3900         37376.000      52.211
  83.4900         37440.000      52.173
  83.5900         37484.000      51.865
  83.6900         37360.000      52.915
  83.7900         36729.000      51.633
  83.8900         37359.000      51.807
  83.9900         37319.000      51.274
  84.0900         37683.000      51.788
  84.1900         37367.000      51.817
  84.2900         37294.000      51.952
  84.3900         37464.000      52.096
  84.4900         37963.000      52.211
  84.5900         38502.000      51.410
  84.6900         39429.000      52.896
  84.7900         41822.000      55.200
  84.8900         43376.000      55.480
  84.9900         45909.000      57.009
  85.0900         48187.000      58.737
  85.1900         51326.000      60.390
  85.2900         54097.000      62.290
  85.3900         56994.000      63.718
  85.4900         60504.000      65.429
  85.5900         64118.000      67.809
  85.6900         65006.000      68.293
  85.7900         65103.000      68.037
  85.8900         64055.000      67.290
  85.9900         62157.000      67.757
  86.0900         58420.000      64.676
  86.1900         54086.000      62.032
  86.2900         51484.000      61.066
  86.3900         48523.000      59.144
  86.4900         45484.000      56.974
  86.5900         42018.000      54.166
  86.6900         40365.000      53.638
  86.7900         38695.000      53.442
  86.8900         38210.000      51.556
  86.9900         38253.000      52.163
  87.0900         38017.000      52.716
  87.1900         37727.000      51.769
  87.2900         38059.000      52.460
  87.3900         38151.000      51.410
  87.4900         38968.000      53.104
  87.5900         39552.000      52.962
  87.6900         40219.000      54.028
  87.7900         41132.000      55.335
  87.8900         42973.000      54.955
  87.9900         43919.000      55.929
  88.0900         45157.000      57.175
  88.1900         47573.000      58.447
  88.2900         50064.000      59.975
  88.3900         51933.000      61.016
  88.4900         53240.000      61.992
  88.5900         53431.000      61.506
  88.6900         52595.000      62.121
  88.7900         51771.000      61.709
  88.8900         49785.000      59.933
  88.9900         47593.000      58.575
  89.0900         45592.000      56.498
  89.1900         44198.000      56.533
  89.2900         42401.000      55.381
  89.3900         40050.000      53.972
  89.4900         39041.000      54.111
  89.5900         38350.000      52.460
  89.6900         38031.000      51.556
  89.7900         37920.000      52.707
  89.8900         37487.000      52.421
  89.9900         37708.000      51.313
  90.0900         36938.000      51.778
  90.1900         37291.000      52.612
  90.2900         37589.000      51.039
  90.3900         37469.000      51.264
  90.4900         37589.000      52.230
  90.5900         38123.000      51.740
  90.6900         38624.000      51.720
  90.7900         38049.000      51.884
  90.8900         37991.000      51.759
  90.9900         38255.000      52.726
  91.0900         38274.000      51.856
  91.1900         37964.000      51.711
  91.2900         37726.000      52.010
  91.3900         37539.000      51.672
  91.4900         37573.000      52.182
  91.5900         37448.000      51.730
  91.6900         37446.000      52.259
  91.7900         37151.000      50.951
  91.8900         37116.000      51.749
  91.9900         37416.000      52.259
  92.0900         36662.000      51.235
  92.1900         37088.000      52.125
  92.2900         37349.000      52.240
  92.3900         37419.000      52.038
  92.4900         36934.000      52.211
  92.5900         36989.000      51.313
  92.6900         36895.000      51.711
  92.7900         36719.000      50.804
  92.8900         37119.000      52.096
  92.9900         37040.000      51.798
  93.0900         36864.000      51.118
  93.1900         37304.000      52.096
  93.2900         36911.000      51.527
  93.3900         36784.000      51.604
  93.4900         36840.000      51.546
  93.5900         37189.000      51.769
  93.6900         36907.000      51.962
  93.7900         36990.000      51.078
  93.8900         36982.000      51.186
  93.9900         37261.000      52.067
  94.0900         36844.000      51.720
  94.1900         37075.000      51.449
  94.2900         37092.000      51.400
  94.3900         37167.000      51.088
  94.4900         36944.000      51.069
  94.5900         37212.000      51.459
  94.6900         36893.000      52.058
  94.7900         36827.000      51.624
  94.8900         36859.000      51.186
  94.9900         36985.000      51.836
  95.0900         37032.000      51.468
  95.1900         36979.000      51.595
  95.2900         37070.000      51.730
  95.3900         37131.000      51.672
  95.4900         36904.000      51.430
  95.5900         37065.000      52.048
  95.6900         37469.000      51.624
  95.7900         37241.000      50.339
  95.8900         37356.000      50.774
  95.9900         37705.000      51.410
  96.0900         38252.000      53.085
  96.1900         38168.000      51.884
  96.2900         38432.000      52.431
  96.3900         38390.000      52.469
  96.4900         38168.000      53.047
  96.5900         38405.000      52.259
  96.6900         38204.000      52.460
  96.7900         37805.000      52.163
  96.8900         37754.000      51.778
  96.9900         37283.000      51.933
  97.0900         36940.000      51.449
  97.1900         37224.000      50.537
  97.2900         37009.000      50.833
  97.3900         36863.000      51.507
  97.4900         36702.000      50.902
  97.5900         36593.000      51.176
  97.6900         36860.000      51.254
  97.7900         36792.000      51.952
  97.8900         37043.000      51.798
  97.9900         37148.000      51.962
  98.0900         37003.000      50.951
  98.1900         36965.000      51.981
  98.2900         37322.000      52.393
  98.3900         37175.000      51.332
  98.4900         36800.000      51.439
  98.5900         37319.000      52.019
  98.6900         37499.000      51.196
  98.7900         37736.000      52.621
  98.8900         37832.000      52.048
  98.9900         38118.000      53.019
  99.0900         38647.000      52.962
  99.1900         39067.000      52.820
  99.2900         39477.000      52.924
  99.3900         40133.000      54.507
  99.4900         41044.000      54.534
  99.5900         42020.000      54.936
  99.6900         42617.000      55.045
  99.7900         43234.000      55.498
  99.8900         43136.000      55.705
  99.9900         43056.000      56.241
 100.0900         42603.000      55.588
 100.1900         41790.000      54.964
 100.2900         41013.000      54.249
 100.3900         40142.000      54.781
 100.4900         39419.000      53.339
 100.5900         38800.000      52.460
 100.6900         38668.000      53.207
 100.7900         37666.000      51.527
 100.8900         37350.000      51.769
 100.9900         37277.000      51.730
 101.0900         36868.000      50.646
 101.1900         36923.000      50.596
 101.2900         36567.000      50.675
 101.3900         36677.000      50.329
 101.4900         37092.000      50.882
 101.5900         36892.000      51.498
 101.6900         37222.000      52.240
 101.7900         37226.000      51.245
 101.8900         37123.000      52.278
 101.9900         37330.000      51.108
 102.0900         37266.000      51.691
 102.1900         37203.000      51.604
 102.2900         37314.000      50.458
 102.3900         36932.000      51.245
 102.4900         37079.000      51.468
 102.5900         37041.000      51.807
 102.6900         36888.000      50.882
 102.7900         36778.000      51.788
 102.8900         36669.000      51.507
 102.9900         36728.000      51.643
 103.0900         36764.000      52.154
 103.1900         36130.000      51.381
 103.2900         36756.000      51.468
 103.3900         36519.000      50.872
 103.4900         36637.000      50.813
 103.5900         36635.000      51.575
 103.6900         36735.000      52.335
 103.7900         36690.000      50.902
 103.8900         36373.000      51.088
 103.9900         36306.000      51.498
 104.0900         36444.000      51.235
 104.1900         36898.000      51.166
 104.2900         36689.000      51.884
 104.3900         36872.000      52.278
 104.4900         36621.000      51.478
 104.5900         36213.000      50.547
 104.6900         36575.000      51.498
 104.7900         36502.000      51.459
 104.8900         36451.000      51.971
 104.9900         36792.000      51.468
 105.0900         36856.000      51.127
 105.1900         36771.000      51.088
 105.2900         36935.000      50.853
 105.3900         36741.000      51.478
 105.4900         37245.000      51.488
 105.5900         37002.000      51.942
 105.6900         37167.000      51.488
 105.7900         36910.000      51.410
 105.8900         36879.000      51.923
 105.9900         36894.000      51.332
 106.0900         37045.000      50.359
 106.1900         37321.000      51.391
 106.2900         37243.000      51.245
 106.3900         37764.000      51.352
 106.4900         38644.000      51.990
 106.5900         40034.000      54.507
 106.6900         41899.000      55.344
 106.7900         44855.000      57.079
 106.8900         48500.000      58.873
 106.9900         52489.000      61.579
 107.0900         56470.000      62.817
 107.1900         61248.000      65.886
 107.2900         65838.000      68.418
 107.3900         72329.000      72.097
 107.4900         79333.000      75.498
 107.5900         85942.000      78.141
 107.6900         92279.000      80.765
 107.7900         98316.000      83.779
 107.8900        105795.000      86.845
 107.9900        114043.000      90.233
 108.0900        120011.000      92.493
 108.1900        124502.000      94.610
 108.2900        126465.000      96.161
 108.3900        126904.000      95.331
 108.4900        126341.000      94.266
 108.5900        124397.000      94.958
 108.6900        121745.000      93.295
 108.7900        115370.000      91.121
 108.8900        106509.000      88.108
 108.9900         96091.000      82.608
 109.0900         87837.000      79.561
 109.1900         81653.000      76.890
 109.2900         78295.000      74.679
 109.3900         72216.000      72.326
 109.4900         65824.000      69.181
 109.5900         58698.000      65.452
 109.6900         53366.000      62.266
 109.7900         49054.000      59.481
 109.8900         45603.000      56.921
 109.9900         42791.000      54.507
 110.0900         40815.000      53.628
 110.1900         39692.000      53.498
 110.2900         38782.000      52.754
 110.3900         38291.000      53.170
 110.4900         37970.000      52.678
 110.5900         37390.000      51.662
 110.6900         37109.000      51.468
 110.7900         36818.000      50.547
 110.8900         36913.000      52.688
 110.9900         36528.000      50.980
 111.0900         36826.000      50.951
 111.1900         36497.000      50.547
 111.2900         36656.000      51.293
 111.3900         36614.000      51.049
 111.4900         36640.000      51.400
 111.5900         36464.000      50.902
 111.6900         36838.000      50.507
 111.7900         36608.000      51.614
 111.8900         36631.000      51.078
 111.9900         36868.000      50.774
 112.0900         36648.000      51.225
 112.1900         36388.000      51.904
 112.2900         36835.000      51.186
 112.3900         36768.000      50.744
 112.4900         37337.000      51.730
 112.5900         36543.000      51.585
 112.6900         36804.000      51.430
 112.7900         37257.000      51.478
 112.8900         36824.000      52.125
 112.9900         37118.000      51.069
 113.0900         37292.000      51.759
 113.1900         37230.000      51.313
 113.2900         37325.000      51.196
 113.3900         37361.000      51.604
 113.4900         37427.000      51.527
 113.5900         37553.000      51.990
 113.6900         37686.000      51.205
 113.7900         37686.000      51.769
 113.8900         37879.000      51.990
 113.9900         37478.000      51.410
 114.0900         37433.000      51.769
 114.1900         37548.000      51.546
 114.2900         36951.000      51.449
 114.3900         37356.000      52.915
 114.4900         37113.000      51.176
 114.5900         37052.000      51.846
 114.6900         36697.000      51.749
 114.7900         36501.000      51.049
 114.8900         36530.000      51.245
 114.9900         36554.000      51.000
 115.0900         36577.000      50.754
 115.1900         36053.000      50.507
 115.2900         36544.000      51.933
 115.3900         36231.000      50.626
 115.4900         36117.000      51.391
 115.5900         36150.000      51.078
 115.6900         36222.000      50.120
 115.7900         36196.000      51.585
 115.8900         36219.000      50.951
 115.9900         35684.000      50.882
 116.0900         36000.000      50.408
 116.1900         36158.000      50.398
 116.2900         36054.000      50.695
 116.3900         35791.000      51.517
 116.4900         36036.000      50.557
 116.5900         36072.000      50.980
 116.6900         35815.000      50.557
 116.7900         35850.000      51.166
 116.8900         35883.000      50.010
 116.9900         35855.000      50.794
 117.0900         35749.000      49.990
 117.1900         35860.000      51.478
 117.2900         35776.000      50.804
 117.3900         36219.000      51.468
 117.4900         35935.000      50.428
 117.5900         36251.000      50.488
 117.6900         36014.000      50.863
 117.7900         36102.000      52.019
 117.8900         36226.000      51.147
 117.9900         36266.000      50.951
 118.0900         35965.000      51.381
 118.1900         36028.000      50.020
 118.2900         35713.000      51.633
 118.3900         35854.000      51.157
 118.4900         35930.000      50.349
 118.5900         35435.000      50.060
 118.6900         35916.000      50.507
 118.7900         35874.000      50.180
 118.8900         35832.000      51.284
 118.9900         36229.000      51.498
 119.0900         35720.000      50.060
 119.1900         36088.000      50.468
 119.2900         36116.000      50.843
 119.3900         36380.000      51.759
 119.4900         35833.000      50.279
 119.5900         36406.000      51.196
 119.6900         35908.000      51.672
 119.7900         36032.000      50.567
 119.8900         36000.000      50.249
 119.9900         36432.000      51.029
 120.0900         36273.000      50.537
 120.1900         36457.000      50.744
 120.2900         35987.000      50.210
 120.3900         36146.000      51.147
 120.4900         36471.000      50.715
 120.5900         36459.000      50.675
 120.6900         36184.000      50.715
 120.7900         36337.000      50.567
 120.8900         36263.000      51.585
 120.9900         36713.000      50.774
 121.0900         36898.000      51.507
 121.1900         37788.000      51.313
 121.2900         38479.000      53.245
 121.3900         40105.000      53.047
 121.4900         42587.000      53.991
 121.5900         45702.000      56.560
 121.6900         48901.000      59.498
 121.7900         53741.000      61.903
 121.8900         59661.000      64.583
 121.9900         66225.000      69.094
 122.0900         72054.000      70.626
 122.1900         78878.000      75.000
 122.2900         85069.000      78.128
 122.3900         91008.000      79.530
 122.4900         98232.000      83.839
 122.5900        108286.000      87.761
 122.6900        119633.000      91.924
 122.7900        130637.000      97.360
 122.8900        141315.000     101.124
 122.9900        151608.000     104.216
 123.0900        161784.000     107.954
 123.1900        172469.000     110.833
 123.2900        184691.000     114.534
 123.3900        197005.000     118.453
 123.4900        209716.000     123.268
 123.5900        219584.000     123.996
 123.6900        226323.000     127.169
 123.7900        232791.000     128.480
 123.8900        236731.000     130.893
 123.9900        238627.000     131.431
 124.0900        237816.000     130.273
 124.1900        236623.000     129.599
 124.2900        234271.000     129.004
 124.3900        226894.000     128.495
 124.4900        220368.000     124.700
 124.5900        208459.000     122.008
 124.6900        191360.000     117.745
 124.7900        172042.000     111.481
 124.8900        155932.000     105.157
 124.9900        143983.000     101.227
 125.0900        136143.000      98.448
 125.1900        132076.000      97.103
 125.2900        125563.000      95.137
 125.3900        116366.000      91.395
 125.4900        105137.000      87.046
 125.5900         94403.000      82.055
 125.6900         83524.000      77.582
 125.7900         75129.000      73.777
 125.8900         67018.000      69.333
 125.9900         60915.000      66.302
 126.0900         55954.000      63.301
 126.1900         51897.000      60.390
 126.2900         48214.000      59.338
 126.3900         46095.000      57.793
 126.4900         44335.000      55.570
 126.5900         43073.000      55.218
 126.6900         41830.000      54.516
 126.7900         41439.000      55.227
 126.8900         40484.000      54.699
 126.9900         39559.000      53.329
 127.0900         38955.000      52.517
 127.1900         38459.000      51.904
 127.2900         37791.000      52.345
 127.3900         37532.000      52.249
 127.4900         37222.000      52.307
 127.5900         36735.000      51.137
 127.6900         36924.000      51.653
 127.7900         36825.000      50.656
 127.8900         36630.000      51.391
 127.9900         36133.000      50.784
 128.0900         36084.000      51.332
 128.1900         35723.000      50.813
 128.2900         35907.000      50.289
 128.3900         35810.000      50.931
 128.4900         35944.000      50.418
 128.5900             6.000       1.414
 128.6900             7.000       1.000
