XYDATA SparksLave CoO-quenched_900_300K 
INTER        1       1       0     0.100000
TEMP       302.776      302.495      300.000
! d1b Date 14-Nov-11 Time 17:36:36 Run 129973 129962>129973
! d1b Date 14-Nov-11 Time 17:36:36 Run 129973 129962>129973
! Monitor/counts, Counting time/sec:  1.09812e+007 1.09812e+007
   0.7900             5.000       1.000
   0.8900             5.000       1.000
   0.9900          2031.000      13.342
   1.0900          1994.000      13.601
   1.1900          1945.000      12.450
   1.2900          1950.000      12.923
   1.3900          1858.000      11.958
   1.4900          2065.000      13.416
   1.5900          1969.000      12.570
   1.6900          2080.000      13.038
   1.7900          2784.000      14.832
   1.8900          4013.000      18.762
   1.9900          6550.000      23.087
   2.0900          8910.000      28.018
   2.1900         11307.000      30.282
   2.2900         14551.000      34.496
   2.3900         17936.000      39.737
   2.4900         21948.000      42.720
   2.5900         25710.000      45.924
   2.6900         29473.000      49.739
   2.7900         32569.000      52.000
   2.8900         35198.000      53.451
   2.9900         38164.000      56.471
   3.0900         41304.000      58.506
   3.1900         43912.000      60.448
   3.2900         45732.000      62.225
   3.3900         45999.000      62.498
   3.4900         45421.000      61.368
   3.5900         44697.000      60.745
   3.6900         44279.000      60.125
   3.7900         43808.000      60.663
   3.8900         42662.000      59.296
   3.9900         43774.000      60.465
   4.0900         43582.000      60.316
   4.1900         43663.000      60.556
   4.2900         43842.000      60.191
   4.3900         44499.000      61.319
   4.4900         45613.000      61.952
   4.5900         47146.000      63.522
   4.6900         49156.000      64.187
   4.7900         50744.000      66.543
   4.8900         52457.000      66.363
   4.9900         53881.000      67.823
   5.0900         56072.000      68.022
   5.1900         58235.000      69.757
   5.2900         59253.000      70.200
   5.3900         61910.000      71.840
   5.4900         63555.000      73.137
   5.5900         64630.000      73.614
   5.6900         66231.000      73.939
   5.7900         67687.000      74.445
   5.8900         69753.000      75.987
   5.9900         70652.000      76.368
   6.0900         71001.000      76.138
   6.1900         70907.000      77.013
   6.2900         70702.000      76.662
   6.3900         70495.000      76.714
   6.4900         70621.000      77.460
   6.5900         70365.000      75.750
   6.6900         69394.000      76.387
   6.7900         69727.000      76.916
   6.8900         69106.000      76.033
   6.9900         69076.000      76.387
   7.0900         68235.000      76.629
   7.1900         67176.000      74.236
   7.2900         67119.000      74.095
   7.3900         66296.000      73.777
   7.4900         65871.000      74.451
   7.5900         64818.000      73.641
   7.6900         64333.000      72.533
   7.7900         63570.000      72.986
   7.8900         62706.000      73.096
   7.9900         61405.000      72.574
   8.0900         60648.000      71.463
   8.1900         60302.000      71.028
   8.2900         59180.000      70.000
   8.3900         58523.000      70.986
   8.4900         57703.000      69.750
   8.5900         56594.000      69.036
   8.6900         56309.000      69.785
   8.7900         55309.000      69.477
   8.8900         54541.000      66.940
   8.9900         53744.000      66.723
   9.0900         53031.000      67.082
   9.1900         52001.000      66.136
   9.2900         51452.000      66.400
   9.3900         50774.000      65.115
   9.4900         50146.000      65.605
   9.5900         48942.000      63.522
   9.6900         47888.000      63.867
   9.7900         46714.000      62.554
   9.8900         46321.000      62.666
   9.9900         45492.000      62.474
  10.0900         44534.000      60.605
  10.1900         43712.000      60.902
  10.2900         42434.000      59.858
  10.3900         42119.000      59.816
  10.4900         41321.000      59.657
  10.5900         40652.000      57.420
  10.6900         40579.000      58.609
  10.7900         39872.000      57.801
  10.8900         39709.000      58.318
  10.9900         39026.000      56.903
  11.0900         38937.000      57.297
  11.1900         38889.000      57.289
  11.2900         39012.000      57.697
  11.3900         38779.000      56.569
  11.4900         38275.000      57.420
  11.5900         38504.000      56.868
  11.6900         38845.000      56.939
  11.7900         38853.000      56.807
  11.8900         38742.000      57.446
  11.9900         38873.000      56.912
  12.0900         38134.000      56.851
  12.1900         38283.000      56.982
  12.2900         38677.000      57.053
  12.3900         38443.000      57.193
  12.4900         38341.000      57.201
  12.5900         38214.000      56.701
  12.6900         38114.000      56.947
  12.7900         38602.000      56.657
  12.8900         37930.000      56.569
  12.9900         38021.000      56.956
  13.0900         38123.000      55.955
  13.1900         38345.000      57.385
  13.2900         38107.000      56.391
  13.3900         38192.000      55.776
  13.4900         37874.000      56.727
  13.5900         37884.000      56.383
  13.6900         38150.000      56.409
  13.7900         37922.000      56.912
  13.8900         38228.000      57.559
  13.9900         38156.000      56.868
  14.0900         37980.000      56.294
  14.1900         37781.000      56.062
  14.2900         38008.000      56.418
  14.3900         37973.000      56.974
  14.4900         38133.000      56.789
  14.5900         37988.000      55.489
  14.6900         37853.000      56.285
  14.7900         38019.000      55.937
  14.8900         37895.000      56.630
  14.9900         37929.000      56.586
  15.0900         37822.000      56.321
  15.1900         37986.000      56.009
  15.2900         39134.000      58.009
  15.3900         39411.000      58.241
  15.4900         39506.000      57.454
  15.5900         38967.000      56.833
  15.6900         38687.000      57.263
  15.7900         38247.000      56.160
  15.8900         37877.000      56.178
  15.9900         37638.000      55.866
  16.0900         38115.000      57.184
  16.1900         38012.000      55.884
  16.2900         37802.000      56.471
  16.3900         38133.000      56.630
  16.4900         38014.000      56.763
  16.5900         37658.000      56.895
  16.6900         37961.000      56.134
  16.7900         37718.000      56.143
  16.8900         37900.000      56.134
  16.9900         37847.000      56.683
  17.0900         37639.000      55.660
  17.1900         37777.000      56.134
  17.2900         37570.000      55.082
  17.3900         37841.000      56.471
  17.4900         37792.000      56.400
  17.5900         37982.000      56.285
  17.6900         37926.000      56.736
  17.7900         37895.000      56.241
  17.8900         38253.000      56.939
  17.9900         37883.000      56.427
  18.0900         38232.000      56.196
  18.1900         37965.000      56.009
  18.2900         37747.000      56.798
  18.3900         37912.000      56.258
  18.4900         38105.000      56.241
  18.5900         37886.000      55.624
  18.6900         37977.000      56.462
  18.7900         37960.000      57.437
  18.8900         37775.000      55.705
  18.9900         37895.000      56.365
  19.0900         37793.000      56.409
  19.1900         37861.000      56.965
  19.2900         38043.000      56.533
  19.3900         37400.000      56.639
  19.4900         37793.000      56.187
  19.5900         37801.000      56.807
  19.6900         37739.000      57.193
  19.7900         38043.000      55.911
  19.8900         37945.000      55.848
  19.9900         37682.000      55.597
  20.0900         37728.000      55.830
  20.1900         38010.000      56.347
  20.2900         37970.000      56.445
  20.3900         37837.000      56.701
  20.4900         38282.000      56.454
  20.5900         37962.000      56.436
  20.6900         38429.000      57.472
  20.7900         38400.000      56.930
  20.8900         38037.000      56.383
  20.9900         38145.000      56.507
  21.0900         37998.000      56.657
  21.1900         37869.000      56.160
  21.2900         37631.000      56.205
  21.3900         37911.000      55.588
  21.4900         38309.000      56.613
  21.5900         38301.000      56.666
  21.6900         38195.000      57.088
  21.7900         37840.000      56.991
  21.8900         38187.000      56.107
  21.9900         37880.000      56.027
  22.0900         37946.000      56.524
  22.1900         37580.000      55.399
  22.2900         38076.000      57.088
  22.3900         37594.000      55.812
  22.4900         38013.000      56.098
  22.5900         37732.000      56.657
  22.6900         38386.000      56.427
  22.7900         37451.000      56.719
  22.8900         37816.000      55.991
  22.9900         38249.000      56.471
  23.0900         37676.000      56.480
  23.1900         37652.000      55.866
  23.2900         37978.000      56.859
  23.3900         37975.000      55.785
  23.4900         38073.000      55.991
  23.5900         38140.000      56.365
  23.6900         37711.000      55.794
  23.7900         37838.000      55.929
  23.8900         38367.000      57.550
  23.9900         38631.000      56.815
  24.0900         38173.000      56.383
  24.1900         38313.000      55.920
  24.2900         38108.000      56.321
  24.3900         37854.000      56.877
  24.4900         37766.000      55.740
  24.5900         38137.000      56.824
  24.6900         37960.000      56.921
  24.7900         37744.000      56.338
  24.8900         37661.000      56.454
  24.9900         37742.000      55.991
  25.0900         37580.000      56.675
  25.1900         37915.000      56.842
  25.2900         37648.000      56.365
  25.3900         38759.000      56.991
  25.4900         38663.000      57.533
  25.5900         38411.000      57.315
  25.6900         38048.000      56.347
  25.7900         37895.000      56.666
  25.8900         37833.000      56.736
  25.9900         38005.000      56.241
  26.0900         37853.000      56.071
  26.1900         38214.000      56.604
  26.2900         38169.000      57.149
  26.3900         37813.000      56.577
  26.4900         37932.000      56.859
  26.5900         38080.000      56.622
  26.6900         38032.000      56.798
  26.7900         38161.000      55.435
  26.8900         37928.000      57.088
  26.9900         37877.000      57.463
  27.0900         37986.000      56.780
  27.1900         38066.000      55.660
  27.2900         38024.000      56.009
  27.3900         38240.000      56.338
  27.4900         38248.000      57.524
  27.5900         37957.000      57.324
  27.6900         38146.000      55.911
  27.7900         38067.000      55.417
  27.8900         37989.000      57.367
  27.9900         38260.000      57.437
  28.0900         38045.000      56.391
  28.1900         37890.000      56.409
  28.2900         37654.000      56.205
  28.3900         37959.000      56.666
  28.4900         37860.000      56.982
  28.5900         38032.000      55.534
  28.6900         38215.000      56.648
  28.7900         38224.000      56.701
  28.8900         38514.000      56.045
  28.9900         38362.000      56.080
  29.0900         37859.000      56.214
  29.1900         38094.000      56.223
  29.2900         38294.000      57.402
  29.3900         38202.000      56.824
  29.4900         37956.000      56.241
  29.5900         37904.000      56.710
  29.6900         38306.000      56.771
  29.7900         38396.000      56.965
  29.8900         39545.000      56.965
  29.9900         39515.000      56.780
  30.0900         39333.000      57.446
  30.1900         38560.000      57.819
  30.2900         38137.000      56.577
  30.3900         38291.000      56.356
  30.4900         38157.000      56.551
  30.5900         38461.000      56.241
  30.6900         38632.000      56.859
  30.7900         39183.000      57.315
  30.8900         40347.000      58.000
  30.9900         44947.000      62.113
  31.0900         58996.000      70.064
  31.1900         84924.000      84.540
  31.2900        108950.000      95.315
  31.3900        110092.000      95.875
  31.4900         88718.000      85.088
  31.5900         61140.000      71.281
  31.6900         45223.000      61.237
  31.7900         39804.000      57.454
  31.8900         39090.000      57.044
  31.9900         38921.000      57.297
  32.0900         38468.000      56.445
  32.1900         38398.000      56.542
  32.2900         38466.000      56.542
  32.3900         38585.000      56.507
  32.4900         38531.000      56.622
  32.5900         38542.000      58.361
  32.6900         38052.000      57.263
  32.7900         38291.000      56.249
  32.8900         38378.000      56.780
  32.9900         38258.000      56.675
  33.0900         38141.000      56.710
  33.1900         37937.000      56.383
  33.2900         38341.000      56.982
  33.3900         38014.000      56.877
  33.4900         38030.000      56.054
  33.5900         38434.000      57.896
  33.6900         37931.000      56.577
  33.7900         38363.000      56.780
  33.8900         38443.000      56.701
  33.9900         38101.000      56.223
  34.0900         38890.000      56.223
  34.1900         39640.000      57.793
  34.2900         39108.000      57.541
  34.3900         38284.000      55.245
  34.4900         38332.000      56.178
  34.5900         38047.000      56.303
  34.6900         38164.000      56.921
  34.7900         38198.000      56.754
  34.8900         37888.000      56.321
  34.9900         38032.000      55.696
  35.0900         37995.000      57.009
  35.1900         37627.000      55.749
  35.2900         37686.000      56.071
  35.3900         37784.000      56.939
  35.4900         37476.000      56.771
  35.5900         37754.000      57.131
  35.6900         37959.000      56.187
  35.7900         38027.000      56.956
  35.8900         37777.000      56.080
  35.9900         38155.000      57.079
  36.0900         39175.000      57.245
  36.1900         42140.000      59.691
  36.2900         48033.000      63.419
  36.3900         49309.000      64.288
  36.4900         45281.000      61.749
  36.5900         40478.000      58.344
  36.6900         38547.000      56.125
  36.7900         37955.000      57.000
  36.8900         37722.000      55.480
  36.9900         38065.000      56.249
  37.0900         38020.000      56.666
  37.1900         37817.000      57.446
  37.2900         37770.000      55.929
  37.3900         37970.000      56.116
  37.4900         37755.000      56.098
  37.5900         37887.000      56.982
  37.6900         37443.000      56.771
  37.7900         37757.000      56.912
  37.8900         37771.000      56.196
  37.9900         37717.000      56.560
  38.0900         37380.000      55.821
  38.1900         37543.000      55.973
  38.2900         37744.000      56.232
  38.3900         37677.000      56.071
  38.4900         37633.000      56.789
  38.5900         37203.000      55.911
  38.6900         37266.000      55.660
  38.7900         37256.000      56.454
  38.8900         37472.000      56.160
  38.9900         36925.000      55.615
  39.0900         37256.000      56.187
  39.1900         37270.000      55.920
  39.2900         37501.000      57.114
  39.3900         37773.000      56.745
  39.4900         37738.000      56.116
  39.5900         37723.000      57.166
  39.6900         38416.000      58.215
  39.7900         38521.000      55.687
  39.8900         38358.000      56.134
  39.9900         37578.000      56.613
  40.0900         37349.000      55.561
  40.1900         38020.000      56.125
  40.2900         37685.000      55.245
  40.3900         37814.000      56.542
  40.4900         37259.000      55.308
  40.5900         37893.000      56.303
  40.6900         37155.000      55.507
  40.7900         37971.000      56.169
  40.8900         37347.000      55.678
  40.9900         37360.000      55.642
  41.0900         37035.000      55.227
  41.1900         36952.000      56.089
  41.2900         37404.000      56.036
  41.3900         37123.000      55.687
  41.4900         37569.000      55.875
  41.5900         37011.000      56.018
  41.6900         37164.000      56.533
  41.7900         37333.000      54.918
  41.8900         37404.000      55.911
  41.9900         37165.000      55.009
  42.0900         37044.000      55.227
  42.1900         37320.000      55.714
  42.2900         37149.000      56.143
  42.3900         37351.000      56.391
  42.4900         36984.000      55.281
  42.5900         37312.000      55.839
  42.6900         37278.000      56.622
  42.7900         37253.000      57.061
  42.8900         37140.000      55.749
  42.9900         37560.000      56.480
  43.0900         37345.000      55.299
  43.1900         37023.000      56.178
  43.2900         36924.000      55.830
  43.3900         37309.000      56.000
  43.4900         37129.000      55.973
  43.5900         37351.000      55.785
  43.6900         37239.000      56.595
  43.7900         37075.000      56.143
  43.8900         37114.000      56.232
  43.9900         37226.000      56.542
  44.0900         37242.000      55.109
  44.1900         37362.000      55.651
  44.2900         36852.000      56.232
  44.3900         37390.000      56.134
  44.4900         37376.000      55.498
  44.5900         37400.000      55.498
  44.6900         37286.000      56.445
  44.7900         37285.000      55.902
  44.8900         37077.000      55.642
  44.9900         37113.000      56.683
  45.0900         37375.000      55.794
  45.1900         36975.000      55.991
  45.2900         37053.000      55.498
  45.3900         37148.000      55.127
  45.4900         37227.000      56.089
  45.5900         37196.000      55.821
  45.6900         37378.000      56.648
  45.7900         37348.000      56.586
  45.8900         37469.000      56.507
  45.9900         37084.000      56.187
  46.0900         37225.000      56.062
  46.1900         37218.000      56.604
  46.2900         37342.000      55.848
  46.3900         37177.000      56.498
  46.4900         37558.000      56.745
  46.5900         37042.000      55.839
  46.6900         37123.000      56.178
  46.7900         37766.000      56.480
  46.8900         36874.000      56.205
  46.9900         37259.000      56.071
  47.0900         37408.000      56.374
  47.1900         37350.000      56.683
  47.2900         37244.000      55.911
  47.3900         37166.000      56.214
  47.4900         37641.000      56.692
  47.5900         38010.000      56.560
  47.6900         40301.000      57.385
  47.7900         41960.000      58.881
  47.8900         42188.000      60.175
  47.9900         40442.000      58.189
  48.0900         38654.000      56.710
  48.1900         37420.000      55.444
  48.2900         37425.000      55.651
  48.3900         37549.000      55.399
  48.4900         37598.000      56.009
  48.5900         37470.000      55.480
  48.6900         37143.000      55.561
  48.7900         37257.000      56.294
  48.8900         37009.000      56.134
  48.9900         37304.000      54.955
  49.0900         37246.000      56.329
  49.1900         37128.000      56.054
  49.2900         37671.000      56.338
  49.3900         37387.000      56.338
  49.4900         37229.000      56.036
  49.5900         37368.000      57.158
  49.6900         37242.000      55.417
  49.7900         37359.000      55.830
  49.8900         37145.000      54.973
  49.9900         37777.000      55.588
  50.0900         37133.000      55.714
  50.1900         37455.000      55.812
  50.2900         37386.000      56.400
  50.3900         37545.000      55.516
  50.4900         37477.000      56.107
  50.5900         37460.000      55.408
  50.6900         37325.000      56.815
  50.7900         37214.000      55.821
  50.8900         37504.000      56.409
  50.9900         37197.000      55.973
  51.0900         36944.000      55.543
  51.1900         37221.000      56.639
  51.2900         37128.000      55.803
  51.3900         37491.000      55.991
  51.4900         37625.000      56.507
  51.5900         37072.000      55.281
  51.6900         37326.000      55.857
  51.7900         38235.000      55.516
  51.8900         40133.000      57.663
  51.9900         43010.000      60.150
  52.0900         48051.000      63.024
  52.1900         55846.000      68.403
  52.2900         65854.000      74.250
  52.3900         68288.000      75.180
  52.4900         64743.000      73.348
  52.5900         57862.000      69.000
  52.6900         48088.000      63.206
  52.7900         41458.000      59.808
  52.8900         39279.000      56.604
  52.9900         38000.000      55.955
  53.0900         37738.000      56.125
  53.1900         37590.000      56.258
  53.2900         37568.000      55.740
  53.3900         37203.000      55.154
  53.4900         37324.000      55.803
  53.5900         37448.000      56.187
  53.6900         37186.000      56.303
  53.7900         37080.000      55.714
  53.8900         37042.000      56.276
  53.9900         37389.000      55.937
  54.0900         37216.000      55.182
  54.1900         37332.000      55.749
  54.2900         37112.000      56.471
  54.3900         37166.000      55.839
  54.4900         37113.000      55.218
  54.5900         37126.000      55.272
  54.6900         37464.000      56.675
  54.7900         37407.000      55.767
  54.8900         37931.000      56.445
  54.9900         37908.000      55.444
  55.0900         37585.000      56.214
  55.1900         37351.000      55.552
  55.2900         37404.000      56.436
  55.3900         37619.000      56.675
  55.4900         37206.000      55.344
  55.5900         36943.000      56.160
  55.6900         37571.000      56.009
  55.7900         37116.000      55.516
  55.8900         37077.000      54.936
  55.9900         37590.000      56.939
  56.0900         37429.000      56.098
  56.1900         37594.000      56.321
  56.2900         37348.000      55.326
  56.3900         36838.000      55.100
  56.4900         37402.000      55.812
  56.5900         37576.000      56.312
  56.6900         37226.000      55.299
  56.7900         37085.000      56.338
  56.8900         37339.000      55.678
  56.9900         37396.000      56.312
  57.0900         37069.000      55.543
  57.1900         37205.000      56.267
  57.2900         36773.000      56.027
  57.3900         37116.000      56.071
  57.4900         37013.000      55.417
  57.5900         37277.000      55.929
  57.6900         37345.000      55.982
  57.7900         37294.000      55.335
  57.8900         37337.000      55.669
  57.9900         37267.000      56.347
  58.0900         36951.000      55.480
  58.1900         36963.000      55.290
  58.2900         37219.000      55.245
  58.3900         37035.000      56.833
  58.4900         37054.000      56.196
  58.5900         37155.000      56.160
  58.6900         37312.000      56.560
  58.7900         37500.000      56.116
  58.8900         37384.000      55.821
  58.9900         37133.000      55.687
  59.0900         36970.000      55.218
  59.1900         37215.000      55.091
  59.2900         37278.000      55.308
  59.3900         37398.000      56.657
  59.4900         37055.000      55.669
  59.5900         37289.000      56.036
  59.6900         37123.000      54.681
  59.7900         37485.000      56.683
  59.8900         37366.000      56.071
  59.9900         37150.000      55.200
  60.0900         36961.000      55.182
  60.1900         37046.000      55.937
  60.2900         37286.000      56.560
  60.3900         37406.000      55.453
  60.4900         37401.000      56.000
  60.5900         37440.000      56.036
  60.6900         37412.000      55.299
  60.7900         37227.000      56.365
  60.8900         37488.000      56.868
  60.9900         37414.000      55.552
  61.0900         37712.000      56.267
  61.1900         37842.000      56.921
  61.2900         37648.000      55.758
  61.3900         38088.000      56.789
  61.4900         38155.000      56.294
  61.5900         38894.000      56.824
  61.6900         40374.000      58.447
  61.7900         42717.000      59.775
  61.8900         46371.000      62.121
  61.9900         50070.000      65.138
  62.0900         55725.000      68.228
  62.1900         62253.000      72.478
  62.2900         65421.000      74.155
  62.3900         63841.000      72.746
  62.4900         61293.000      71.770
  62.5900         56156.000      67.742
  62.6900         50460.000      65.123
  62.7900         44404.000      60.597
  62.8900         40572.000      58.241
  62.9900         38730.000      56.798
  63.0900         38124.000      57.035
  63.1900         37672.000      56.886
  63.2900         37704.000      56.160
  63.3900         37315.000      56.071
  63.4900         37146.000      55.335
  63.5900         37534.000      55.866
  63.6900         37860.000      56.798
  63.7900         37669.000      56.613
  63.8900         37732.000      56.241
  63.9900         37832.000      56.294
  64.0900         37998.000      56.965
  64.1900         38239.000      56.498
  64.2900         38428.000      56.471
  64.3900         38692.000      56.533
  64.4900         39351.000      56.842
  64.5900         42359.000      60.042
  64.6900         50558.000      65.246
  64.7900         67195.000      75.333
  64.8900         91489.000      87.550
  64.9900        120192.000     100.334
  65.0900        149314.000     110.413
  65.1900        189228.000     125.048
  65.2900        229220.000     139.273
  65.3900        244424.000     142.909
  65.4900        235277.000     139.090
  65.5900        216482.000     133.405
  65.6900        188315.000     124.527
  65.7900        150456.000     111.503
  65.8900        108278.000      94.234
  65.9900         73571.000      77.647
  66.0900         54283.000      66.663
  66.1900         46035.000      60.992
  66.2900         41591.000      59.330
  66.3900         39029.000      57.149
  66.4900         37966.000      55.308
  66.5900         37625.000      56.622
  66.6900         37353.000      55.714
  66.7900         37231.000      56.071
  66.8900         37313.000      56.666
  66.9900         36889.000      55.534
  67.0900         36679.000      54.900
  67.1900         36748.000      55.937
  67.2900         36808.000      55.344
  67.3900         36451.000      55.678
  67.4900         37095.000      56.886
  67.5900         38060.000      57.166
  67.6900         38646.000      57.035
  67.7900         38197.000      56.436
  67.8900         37794.000      57.035
  67.9900         37353.000      56.134
  68.0900         37081.000      55.399
  68.1900         36307.000      55.045
  68.2900         35932.000      54.387
  68.3900         36412.000      54.818
  68.4900         35623.000      54.332
  68.5900         35711.000      54.479
  68.6900         36084.000      55.064
  68.7900         35887.000      54.479
  68.8900         35907.000      55.136
  68.9900         35726.000      54.534
  69.0900         36102.000      55.498
  69.1900         35419.000      54.166
  69.2900         35955.000      54.406
  69.3900         35709.000      54.553
  69.4900         35887.000      54.562
  69.5900         35999.000      55.118
  69.6900         35554.000      54.139
  69.7900         35797.000      54.717
  69.8900         35766.000      54.672
  69.9900         35854.000      54.672
  70.0900         35620.000      55.118
  70.1900         35429.000      54.295
  70.2900         36097.000      55.254
  70.3900         35492.000      54.323
  70.4900         35572.000      54.424
  70.5900         35816.000      54.982
  70.6900         35743.000      55.426
  70.7900         35875.000      54.544
  70.8900         35479.000      55.299
  70.9900         35932.000      54.433
  71.0900         35788.000      54.717
  71.1900         35810.000      54.249
  71.2900         36711.000      55.272
  71.3900         36676.000      56.134
  71.4900         37589.000      55.597
  71.5900         37534.000      55.525
  71.6900         38117.000      56.214
  71.7900         38776.000      57.602
  71.8900         38978.000      55.929
  71.9900         39330.000      57.402
  72.0900         39096.000      57.035
  72.1900         39289.000      57.784
  72.2900         38675.000      57.671
  72.3900         38744.000      57.070
  72.4900         37830.000      56.383
  72.5900         37893.000      57.324
  72.6900         36766.000      54.305
  72.7900         37267.000      55.902
  72.8900         36570.000      55.525
  72.9900         36081.000      55.444
  73.0900         36192.000      54.314
  73.1900         35922.000      54.589
  73.2900         35850.000      54.863
  73.3900         36511.000      55.723
  73.4900         36317.000      55.426
  73.5900         37165.000      56.045
  73.6900         36648.000      55.453
  73.7900         36739.000      55.723
  73.8900         36666.000      55.579
  73.9900         36083.000      54.452
  74.0900         35603.000      55.381
  74.1900         35522.000      54.708
  74.2900         35493.000      54.249
  74.3900         34783.000      53.852
  74.4900         35317.000      54.964
  74.5900         35526.000      54.120
  74.6900         35122.000      55.308
  74.7900         35405.000      54.185
  74.8900         35555.000      53.563
  74.9900         35503.000      53.981
  75.0900         35349.000      54.982
  75.1900         35243.000      54.148
  75.2900         35372.000      54.479
  75.3900         35633.000      54.745
  75.4900         35728.000      54.936
  75.5900         35636.000      55.399
  75.6900         35526.000      55.018
  75.7900         35951.000      54.918
  75.8900         36096.000      55.018
  75.9900         36925.000      56.071
  76.0900         38272.000      57.896
  76.1900         40910.000      58.626
  76.2900         48409.000      63.820
  76.3900         60336.000      70.285
  76.4900         76439.000      79.209
  76.5900         95802.000      89.420
  76.6900        118055.000      99.081
  76.7900        140234.000     107.986
  76.8900        165241.000     117.461
  76.9900        200833.000     128.639
  77.0900        225936.000     136.916
  77.1900        231795.000     139.298
  77.2900        226631.000     137.648
  77.3900        214632.000     134.194
  77.4900        191096.000     126.222
  77.5900        162162.000     115.728
  77.6900        136472.000     106.386
  77.7900        108501.000      94.197
  77.8900         78854.000      81.160
  77.9900         59299.000      70.555
  78.0900         48354.000      63.040
  78.1900         42837.000      58.975
  78.2900         39967.000      58.344
  78.3900         37918.000      55.946
  78.4900         36790.000      56.383
  78.5900         36082.000      55.299
  78.6900         35845.000      55.920
  78.7900         35702.000      54.690
  78.8900         35189.000      55.299
  78.9900         35547.000      54.277
  79.0900         35338.000      53.917
  79.1900         35546.000      54.507
  79.2900         35601.000      55.444
  79.3900         35586.000      54.909
  79.4900         35722.000      53.712
  79.5900         35846.000      54.854
  79.6900         35214.000      54.571
  79.7900         34994.000      54.727
  79.8900         34888.000      53.582
  79.9900         34630.000      55.344
  80.0900         34482.000      53.852
  80.1900         34046.000      54.019
  80.2900         34123.000      53.151
  80.3900         34380.000      53.535
  80.4900         34742.000      54.111
  80.5900         34432.000      53.460
  80.6900         34647.000      53.507
  80.7900         34120.000      53.376
  80.8900         34488.000      53.787
  80.9900         34247.000      53.768
  81.0900         34081.000      54.231
  81.1900         34096.000      53.870
  81.2900         34121.000      53.423
  81.3900         34019.000      53.907
  81.4900         33894.000      53.245
  81.5900         33922.000      53.367
  81.6900         34143.000      53.963
  81.7900         34104.000      53.656
  81.8900         34233.000      53.833
  81.9900         34024.000      53.217
  82.0900         33971.000      54.120
  82.1900         33988.000      53.188
  82.2900         34071.000      53.749
  82.3900         33997.000      53.292
  82.4900         34152.000      54.046
  82.5900         34473.000      54.644
  82.6900         34184.000      53.935
  82.7900         34346.000      53.935
  82.8900         34245.000      54.351
  82.9900         34448.000      53.675
  83.0900         34161.000      53.879
  83.1900         34223.000      53.198
  83.2900         33817.000      54.056
  83.3900         34179.000      53.160
  83.4900         34382.000      54.900
  83.5900         33741.000      53.104
  83.6900         33604.000      53.329
  83.7900         33807.000      53.385
  83.8900         34048.000      54.046
  83.9900         33739.000      52.211
  84.0900         33853.000      53.160
  84.1900         33929.000      53.329
  84.2900         34131.000      53.777
  84.3900         34092.000      53.075
  84.4900         34628.000      53.310
  84.5900         35111.000      54.397
  84.6900         36223.000      55.100
  84.7900         36703.000      55.597
  84.8900         38485.000      56.400
  84.9900         40516.000      58.847
  85.0900         41912.000      59.195
  85.1900         43111.000      60.075
  85.2900         45084.000      60.852
  85.3900         47295.000      62.952
  85.4900         49609.000      64.506
  85.5900         50546.000      65.069
  85.6900         50745.000      65.230
  85.7900         50191.000      65.307
  85.8900         49293.000      64.273
  85.9900         47834.000      63.608
  86.0900         44632.000      61.082
  86.1900         42858.000      60.225
  86.2900         41363.000      58.370
  86.3900         38724.000      56.347
  86.4900         37087.000      54.672
  86.5900         35661.000      55.308
  86.6900         34911.000      54.157
  86.7900         33895.000      54.461
  86.8900         34144.000      52.906
  86.9900         33671.000      53.160
  87.0900         33641.000      52.583
  87.1900         33768.000      53.907
  87.2900         33702.000      53.254
  87.3900         33297.000      52.048
  87.4900         33401.000      52.269
  87.5900         33337.000      52.440
  87.6900         33537.000      52.364
  87.7900         33406.000      53.066
  87.8900         33561.000      52.792
  87.9900         33890.000      52.849
  88.0900         34546.000      53.954
  88.1900         34443.000      53.009
  88.2900         35217.000      54.286
  88.3900         36072.000      54.918
  88.4900         36599.000      56.080
  88.5900         36394.000      55.317
  88.6900         35709.000      54.681
  88.7900         35723.000      54.019
  88.8900         35070.000      54.351
  88.9900         34890.000      54.378
  89.0900         34221.000      53.814
  89.1900         33809.000      53.123
  89.2900         33410.000      53.367
  89.3900         33390.000      52.792
  89.4900         33268.000      52.716
  89.5900         32974.000      52.240
  89.6900         33366.000      54.009
  89.7900         33403.000      52.249
  89.8900         33217.000      53.047
  89.9900         33274.000      53.132
  90.0900         33451.000      52.421
  90.1900         33648.000      53.179
  90.2900         33853.000      53.198
  90.3900         33936.000      52.038
  90.4900         34315.000      53.047
  90.5900         34274.000      53.357
  90.6900         34140.000      53.768
  90.7900         34184.000      54.305
  90.8900         33956.000      52.659
  90.9900         34027.000      54.489
  91.0900         33756.000      53.385
  91.1900         34108.000      52.830
  91.2900         33763.000      53.395
  91.3900         33807.000      54.028
  91.4900         33650.000      53.085
  91.5900         33450.000      52.526
  91.6900         33486.000      52.868
  91.7900         33395.000      53.113
  91.8900         33411.000      54.249
  91.9900         33307.000      52.612
  92.0900         33753.000      52.345
  92.1900         33559.000      52.726
  92.2900         33387.000      53.123
  92.3900         33435.000      52.650
  92.4900         33544.000      52.574
  92.5900         33457.000      52.659
  92.6900         33454.000      53.047
  92.7900         33385.000      53.460
  92.8900         33373.000      51.865
  92.9900         33499.000      52.498
  93.0900         33445.000      51.817
  93.1900         33097.000      52.783
  93.2900         33396.000      53.170
  93.3900         33404.000      52.393
  93.4900         32896.000      51.410
  93.5900         33488.000      53.038
  93.6900         33764.000      52.924
  93.7900         33309.000      52.383
  93.8900         33124.000      52.000
  93.9900         33256.000      52.536
  94.0900         33356.000      52.849
  94.1900         33308.000      52.858
  94.2900         33519.000      52.830
  94.3900         33137.000      52.278
  94.4900         33713.000      53.470
  94.5900         33339.000      52.269
  94.6900         33277.000      53.479
  94.7900         33308.000      52.048
  94.8900         33079.000      52.991
  94.9900         33486.000      52.754
  95.0900         33306.000      52.659
  95.1900         33266.000      53.000
  95.2900         33496.000      53.554
  95.3900         33237.000      52.612
  95.4900         33124.000      53.104
  95.5900         33481.000      52.355
  95.6900         33561.000      52.849
  95.7900         33492.000      51.913
  95.8900         34062.000      54.203
  95.9900         34270.000      53.628
  96.0900         34173.000      53.777
  96.1900         34567.000      54.635
  96.2900         34666.000      53.666
  96.3900         34350.000      53.722
  96.4900         34149.000      53.160
  96.5900         34314.000      53.712
  96.6900         33771.000      53.991
  96.7900         33639.000      52.896
  96.8900         33572.000      53.572
  96.9900         33649.000      52.526
  97.0900         33200.000      52.612
  97.1900         33522.000      52.278
  97.2900         33409.000      53.357
  97.3900         33261.000      52.802
  97.4900         33261.000      53.038
  97.5900         32922.000      52.754
  97.6900         33558.000      53.282
  97.7900         33340.000      53.132
  97.8900         33258.000      52.849
  97.9900         33250.000      53.028
  98.0900         33478.000      52.764
  98.1900         32996.000      52.479
  98.2900         33685.000      53.619
  98.3900         33247.000      52.602
  98.4900         33346.000      52.536
  98.5900         33806.000      52.953
  98.6900         34092.000      53.019
  98.7900         33976.000      53.488
  98.8900         34787.000      54.166
  98.9900         34625.000      54.056
  99.0900         35159.000      54.863
  99.1900         35576.000      54.973
  99.2900         35891.000      55.127
  99.3900         36959.000      55.955
  99.4900         37155.000      55.371
  99.5900         37829.000      55.803
  99.6900         38464.000      56.974
  99.7900         38352.000      56.886
  99.8900         38651.000      56.965
  99.9900         38201.000      56.329
 100.0900         37281.000      55.767
 100.1900         36608.000      55.299
 100.2900         36098.000      54.351
 100.3900         35752.000      54.148
 100.4900         35218.000      54.800
 100.5900         34499.000      52.849
 100.6900         34032.000      53.833
 100.7900         33616.000      53.151
 100.8900         33373.000      53.301
 100.9900         33379.000      53.694
 101.0900         33539.000      53.132
 101.1900         33365.000      52.858
 101.2900         33045.000      53.057
 101.3900         33752.000      52.773
 101.4900         33162.000      52.144
 101.5900         33444.000      52.792
 101.6900         33458.000      52.307
 101.7900         33796.000      52.593
 101.8900         33834.000      53.805
 101.9900         33665.000      53.954
 102.0900         33586.000      53.526
 102.1900         33314.000      52.669
 102.2900         33263.000      51.990
 102.3900         33389.000      53.179
 102.4900         33455.000      52.934
 102.5900         33261.000      52.896
 102.6900         33583.000      53.740
 102.7900         33154.000      53.535
 102.8900         32936.000      53.507
 102.9900         33010.000      51.769
 103.0900         33048.000      52.631
 103.1900         32830.000      52.934
 103.2900         33468.000      53.207
 103.3900         33302.000      52.669
 103.4900         33051.000      51.971
 103.5900         33369.000      52.783
 103.6900         33259.000      52.134
 103.7900         32986.000      51.478
 103.8900         32974.000      52.564
 103.9900         33130.000      52.221
 104.0900         32988.000      52.115
 104.1900         33084.000      52.125
 104.2900         32943.000      52.249
 104.3900         33029.000      52.316
 104.4900         32978.000      53.198
 104.5900         33244.000      53.282
 104.6900         32937.000      52.564
 104.7900         33105.000      52.896
 104.8900         33180.000      52.393
 104.9900         33656.000      53.498
 105.0900         33126.000      52.811
 105.1900         33350.000      52.067
 105.2900         33455.000      52.849
 105.3900         33343.000      52.896
 105.4900         33366.000      53.591
 105.5900         33449.000      52.621
 105.6900         33081.000      52.134
 105.7900         33600.000      52.086
 105.8900         33345.000      53.442
 105.9900         33437.000      53.544
 106.0900         33671.000      52.868
 106.1900         33607.000      53.367
 106.2900         34175.000      53.740
 106.3900         34707.000      54.314
 106.4900         35730.000      54.991
 106.5900         37090.000      56.080
 106.6900         39578.000      57.827
 106.7900         42248.000      60.390
 106.8900         45727.000      62.266
 106.9900         48767.000      63.734
 107.0900         52562.000      65.062
 107.1900         56662.000      68.637
 107.2900         61481.000      72.319
 107.3900         67991.000      74.967
 107.4900         72849.000      77.698
 107.5900         78003.000      81.179
 107.6900         83272.000      83.409
 107.7900         89697.000      84.841
 107.8900         95782.000      89.168
 107.9900        100924.000      92.520
 108.0900        105355.000      93.995
 108.1900        106782.000      93.226
 108.2900        106628.000      94.472
 108.3900        105865.000      93.616
 108.4900        104839.000      93.493
 108.5900        100991.000      90.410
 108.6900         96899.000      89.398
 108.7900         89715.000      86.302
 108.8900         80069.000      81.695
 108.9900         73783.000      78.556
 109.0900         70432.000      76.138
 109.1900         66096.000      73.736
 109.2900         61909.000      71.407
 109.3900         56378.000      68.323
 109.4900         50575.000      65.315
 109.5900         46599.000      62.402
 109.6900         42691.000      58.754
 109.7900         39413.000      57.576
 109.8900         37709.000      55.669
 109.9900         36435.000      55.200
 110.0900         35612.000      54.314
 110.1900         34392.000      53.085
 110.2900         34008.000      52.811
 110.3900         33717.000      52.972
 110.4900         33810.000      53.292
 110.5900         33534.000      52.669
 110.6900         33198.000      52.688
 110.7900         33074.000      52.991
 110.8900         33240.000      52.526
 110.9900         33127.000      52.488
 111.0900         32961.000      52.383
 111.1900         33011.000      52.868
 111.2900         33401.000      53.085
 111.3900         33023.000      53.628
 111.4900         32933.000      52.640
 111.5900         33070.000      51.595
 111.6900         33198.000      52.811
 111.7900         33247.000      52.297
 111.8900         33239.000      53.357
 111.9900         33147.000      53.047
 112.0900         33420.000      52.943
 112.1900         32996.000      52.526
 112.2900         33287.000      53.339
 112.3900         33346.000      53.151
 112.4900         33199.000      52.669
 112.5900         33545.000      53.019
 112.6900         33406.000      52.555
 112.7900         33789.000      52.877
 112.8900         33568.000      54.000
 112.9900         33512.000      53.329
 113.0900         33839.000      52.858
 113.1900         33560.000      53.526
 113.2900         33821.000      53.572
 113.3900         33526.000      53.516
 113.4900         33144.000      52.688
 113.5900         33712.000      53.842
 113.6900         33917.000      52.877
 113.7900         33490.000      53.898
 113.8900         33754.000      53.038
 113.9900         33848.000      52.678
 114.0900         33764.000      52.602
 114.1900         33270.000      52.820
 114.2900         33263.000      52.981
 114.3900         33164.000      53.075
 114.4900         33277.000      52.830
 114.5900         33259.000      52.173
 114.6900         32900.000      52.707
 114.7900         32966.000      52.259
 114.8900         32896.000      53.113
 114.9900         33096.000      52.526
 115.0900         32854.000      52.402
 115.1900         32773.000      52.678
 115.2900         32768.000      52.211
 115.3900         32516.000      52.498
 115.4900         33132.000      52.707
 115.5900         32650.000      52.259
 115.6900         32648.000      51.478
 115.7900         32466.000      52.144
 115.8900         32234.000      51.730
 115.9900         32399.000      51.720
 116.0900         32356.000      52.678
 116.1900         32265.000      51.846
 116.2900         32839.000      52.278
 116.3900         32587.000      52.383
 116.4900         32679.000      52.393
 116.5900         32444.000      51.778
 116.6900         32601.000      52.374
 116.7900         32489.000      52.154
 116.8900         32744.000      52.326
 116.9900         32404.000      51.303
 117.0900         32612.000      53.000
 117.1900         32457.000      52.877
 117.2900         32637.000      51.875
 117.3900         32145.000      52.173
 117.4900         32378.000      51.517
 117.5900         32346.000      51.740
 117.6900         32662.000      52.211
 117.7900         32568.000      52.440
 117.8900         32231.000      52.288
 117.9900         32635.000      51.478
 118.0900         32396.000      51.894
 118.1900         32754.000      52.029
 118.2900         32317.000      51.088
 118.3900         32605.000      52.355
 118.4900         32354.000      51.517
 118.5900         32609.000      51.449
 118.6900         32529.000      52.374
 118.7900         32755.000      52.288
 118.8900         32419.000      51.527
 118.9900         32680.000      52.659
 119.0900         32570.000      52.393
 119.1900         32713.000      52.096
 119.2900         32659.000      52.773
 119.3900         32675.000      53.094
 119.4900         32766.000      53.282
 119.5900         32627.000      52.830
 119.6900         32608.000      52.583
 119.7900         32343.000      51.284
 119.8900         32640.000      52.393
 119.9900         32792.000      52.593
 120.0900         32684.000      51.701
 120.1900         32728.000      52.393
 120.2900         32720.000      51.856
 120.3900         32855.000      53.310
 120.4900         32700.000      52.182
 120.5900         32924.000      52.887
 120.6900         32944.000      52.745
 120.7900         33151.000      52.307
 120.8900         33222.000      52.564
 120.9900         33639.000      53.254
 121.0900         34321.000      53.094
 121.1900         35578.000      55.281
 121.2900         36691.000      55.884
 121.3900         38767.000      57.472
 121.4900         41698.000      59.540
 121.5900         45109.000      61.814
 121.6900         49685.000      64.475
 121.7900         53989.000      67.639
 121.8900         59598.000      70.675
 121.9900         65165.000      75.220
 122.0900         70466.000      77.032
 122.1900         75633.000      80.262
 122.2900         81278.000      83.060
 122.3900         88280.000      85.528
 122.4900         96506.000      89.839
 122.5900        106923.000      95.032
 122.6900        116070.000      98.823
 122.7900        124905.000     102.367
 122.8900        132745.000     105.688
 122.9900        141246.000     109.179
 123.0900        151484.000     112.468
 123.1900        162212.000     116.129
 123.2900        173907.000     120.237
 123.3900        183214.000     123.450
 123.4900        191067.000     125.992
 123.5900        196625.000     128.152
 123.6900        200000.000     129.201
 123.7900        201983.000     129.553
 123.8900        203621.000     129.746
 123.9900        202797.000     129.680
 124.0900        200388.000     129.530
 124.1900        197839.000     128.316
 124.2900        191493.000     125.371
 124.3900        182933.000     123.487
 124.4900        171848.000     119.465
 124.5900        157824.000     113.873
 124.6900        141182.000     106.691
 124.7900        128807.000     103.600
 124.8900        119797.000      99.403
 124.9900        115624.000      98.631
 125.0900        111620.000      95.750
 125.1900        104682.000      93.408
 125.2900         96111.000      89.983
 125.3900         87080.000      84.658
 125.4900         77614.000      79.674
 125.5900         69247.000      75.723
 125.6900         62018.000      71.791
 125.7900         56152.000      67.890
 125.8900         51263.000      65.361
 125.9900         47062.000      62.314
 126.0900         44052.000      60.141
 126.1900         41896.000      59.431
 126.2900         39858.000      58.387
 126.3900         39004.000      57.454
 126.4900         37953.000      55.964
 126.5900         37125.000      55.803
 126.6900         35848.000      54.083
 126.7900         35937.000      54.378
 126.8900         35397.000      55.263
 126.9900         34311.000      53.768
 127.0900         33956.000      52.364
 127.1900         33827.000      53.404
 127.2900         33604.000      52.374
 127.3900         32888.000      52.783
 127.4900         33222.000      52.697
 127.5900         32754.000      52.144
 127.6900         32714.000      52.297
 127.7900         32650.000      52.297
 127.8900         32412.000      52.545
 127.9900         32336.000      52.412
 128.0900         32211.000      52.555
 128.1900         32257.000      52.221
 128.2900         31918.000      51.894
 128.3900         32476.000      51.323
 128.4900         32089.000      51.894
 128.5900             4.000       1.000
 128.6900             6.000       1.000
