XYDATA SparksLave Co-quenched_RT_300K 
INTER        1       1       0     0.100000
TEMP       306.427      303.891      300.000
! d1b Date 15-Nov-11 Time 11:30:15 Run 130033 130022>130033
! d1b Date 15-Nov-11 Time 11:30:15 Run 130033 130022>130033
! Monitor/counts, Counting time/sec:  1.08851e+007 1.08851e+007
   0.7900             7.000       1.000
   0.8900             4.000       1.000
   0.9900          2171.000      13.038
   1.0900          2074.000      12.288
   1.1900          2063.000      13.342
   1.2900          2039.000      14.000
   1.3900          2065.000      13.077
   1.4900          2013.000      11.705
   1.5900          2098.000      13.820
   1.6900          2225.000      13.304
   1.7900          2752.000      14.933
   1.8900          4225.000      18.385
   1.9900          6725.000      24.228
   2.0900          9187.000      28.302
   2.1900         11434.000      30.216
   2.2900         14362.000      34.785
   2.3900         18304.000      38.987
   2.4900         22344.000      42.907
   2.5900         26095.000      46.476
   2.6900         29631.000      49.346
   2.7900         32861.000      52.612
   2.8900         35370.000      54.406
   2.9900         38376.000      56.294
   3.0900         41237.000      58.241
   3.1900         44030.000      60.564
   3.2900         46231.000      61.741
   3.3900         46080.000      61.863
   3.4900         45414.000      62.434
   3.5900         45430.000      61.286
   3.6900         44414.000      60.671
   3.7900         44197.000      61.188
   3.8900         43818.000      61.000
   3.9900         43260.000      59.405
   4.0900         43518.000      59.624
   4.1900         43609.000      60.415
   4.2900         43701.000      60.266
   4.3900         44984.000      60.869
   4.4900         46981.000      62.081
   4.5900         49760.000      64.265
   4.6900         53767.000      66.738
   4.7900         57277.000      69.123
   4.8900         60796.000      70.682
   4.9900         64319.000      73.287
   5.0900         67175.000      74.283
   5.1900         70465.000      77.272
   5.2900         73367.000      78.218
   5.3900         76227.000      79.561
   5.4900         79064.000      81.431
   5.5900         80696.000      81.646
   5.6900         83996.000      84.475
   5.7900         85016.000      84.433
   5.8900         86672.000      84.599
   5.9900         87475.000      85.610
   6.0900         87544.000      85.112
   6.1900         85849.000      84.113
   6.2900         86217.000      85.458
   6.3900         84337.000      83.487
   6.4900         84763.000      84.024
   6.5900         83856.000      84.167
   6.6900         82447.000      83.162
   6.7900         81722.000      82.012
   6.8900         80894.000      81.988
   6.9900         80035.000      82.024
   7.0900         79078.000      81.799
   7.1900         77736.000      80.281
   7.2900         77168.000      79.586
   7.3900         76573.000      79.246
   7.4900         75702.000      79.944
   7.5900         74278.000      79.618
   7.6900         73128.000      78.269
   7.7900         72686.000      78.447
   7.8900         71138.000      76.590
   7.9900         70174.000      76.609
   8.0900         68901.000      75.113
   8.1900         68607.000      75.888
   8.2900         67656.000      75.173
   8.3900         66668.000      74.020
   8.4900         66203.000      75.053
   8.5900         64825.000      73.389
   8.6900         63946.000      72.298
   8.7900         62896.000      72.897
   8.8900         61646.000      71.365
   8.9900         61153.000      72.360
   9.0900         59713.000      71.190
   9.1900         58614.000      70.328
   9.2900         57951.000      69.584
   9.3900         57100.000      68.191
   9.4900         56322.000      68.877
   9.5900         55177.000      68.491
   9.6900         54746.000      67.097
   9.7900         53482.000      66.182
   9.8900         52361.000      65.414
   9.9900         51960.000      66.219
  10.0900         50956.000      65.879
  10.1900         50147.000      63.804
  10.2900         49530.000      64.831
  10.3900         48725.000      63.945
  10.4900         47641.000      62.024
  10.5900         47413.000      63.166
  10.6900         46574.000      62.362
  10.7900         45949.000      62.129
  10.8900         45553.000      62.121
  10.9900         45124.000      61.205
  11.0900         45328.000      61.498
  11.1900         44869.000      61.514
  11.2900         45145.000      60.967
  11.3900         44333.000      60.399
  11.4900         44845.000      61.286
  11.5900         44435.000      60.490
  11.6900         43995.000      60.465
  11.7900         44314.000      60.885
  11.8900         44199.000      61.270
  11.9900         44520.000      60.175
  12.0900         44551.000      60.852
  12.1900         44305.000      60.902
  12.2900         44684.000      60.548
  12.3900         43871.000      60.191
  12.4900         44695.000      61.465
  12.5900         43781.000      60.432
  12.6900         44270.000      60.770
  12.7900         43945.000      61.008
  12.8900         43925.000      60.655
  12.9900         44241.000      61.474
  13.0900         43919.000      59.766
  13.1900         44059.000      61.530
  13.2900         44108.000      60.811
  13.3900         43735.000      60.000
  13.4900         43720.000      60.473
  13.5900         43746.000      59.858
  13.6900         43866.000      60.075
  13.7900         43925.000      60.564
  13.8900         43826.000      60.208
  13.9900         43898.000      59.833
  14.0900         44122.000      61.522
  14.1900         43896.000      60.332
  14.2900         43703.000      60.266
  14.3900         43969.000      60.934
  14.4900         43538.000      60.975
  14.5900         43518.000      60.000
  14.6900         43627.000      60.934
  14.7900         43882.000      60.490
  14.8900         43735.000      60.539
  14.9900         43924.000      60.316
  15.0900         43545.000      59.590
  15.1900         44058.000      60.448
  15.2900         43864.000      59.573
  15.3900         44545.000      61.033
  15.4900         44192.000      61.147
  15.5900         43922.000      60.893
  15.6900         43927.000      59.892
  15.7900         43999.000      60.374
  15.8900         43215.000      59.532
  15.9900         43840.000      60.506
  16.0900         43619.000      60.926
  16.1900         43370.000      61.098
  16.2900         43358.000      59.590
  16.3900         43397.000      60.523
  16.4900         43567.000      61.156
  16.5900         43564.000      60.514
  16.6900         43745.000      60.308
  16.7900         43647.000      59.791
  16.8900         43293.000      59.380
  16.9900         43227.000      60.357
  17.0900         43418.000      61.066
  17.1900         43432.000      59.892
  17.2900         43968.000      60.614
  17.3900         43703.000      60.166
  17.4900         43668.000      60.614
  17.5900         43639.000      60.787
  17.6900         43441.000      59.532
  17.7900         43463.000      60.100
  17.8900         43755.000      60.605
  17.9900         43879.000      60.877
  18.0900         43837.000      60.191
  18.1900         43747.000      59.724
  18.2900         44027.000      60.655
  18.3900         43679.000      60.737
  18.4900         43762.000      61.057
  18.5900         43256.000      60.249
  18.6900         43446.000      60.754
  18.7900         43748.000      60.033
  18.8900         43480.000      60.819
  18.9900         43997.000      60.967
  19.0900         43703.000      60.539
  19.1900         43342.000      60.638
  19.2900         43356.000      60.324
  19.3900         43742.000      60.067
  19.4900         43774.000      59.699
  19.5900         43402.000      60.481
  19.6900         43358.000      59.883
  19.7900         43327.000      60.967
  19.8900         43567.000      60.092
  19.9900         43366.000      59.958
  20.0900         43199.000      59.287
  20.1900         43259.000      60.233
  20.2900         43674.000      60.992
  20.3900         43172.000      60.216
  20.4900         43362.000      59.841
  20.5900         43480.000      59.800
  20.6900         43653.000      60.133
  20.7900         43495.000      60.671
  20.8900         43874.000      61.147
  20.9900         43571.000      60.754
  21.0900         43429.000      59.783
  21.1900         43385.000      60.249
  21.2900         43657.000      59.867
  21.3900         43565.000      59.800
  21.4900         43538.000      60.481
  21.5900         43305.000      59.791
  21.6900         43691.000      61.131
  21.7900         43386.000      60.274
  21.8900         43086.000      59.414
  21.9900         43330.000      59.975
  22.0900         43485.000      60.042
  22.1900         43713.000      60.778
  22.2900         43398.000      60.754
  22.3900         43583.000      60.075
  22.4900         43250.000      60.597
  22.5900         43354.000      60.092
  22.6900         43431.000      59.791
  22.7900         43332.000      60.133
  22.8900         42930.000      60.067
  22.9900         43564.000      59.624
  23.0900         43438.000      60.390
  23.1900         43094.000      59.447
  23.2900         43073.000      60.357
  23.3900         43775.000      60.622
  23.4900         43001.000      59.034
  23.5900         43391.000      59.858
  23.6900         43391.000      59.858
  23.7900         43633.000      61.033
  23.8900         43570.000      60.258
  23.9900         43742.000      60.092
  24.0900         43614.000      60.803
  24.1900         43973.000      60.225
  24.2900         43458.000      59.649
  24.3900         43319.000      60.630
  24.4900         42935.000      60.283
  24.5900         43383.000      60.042
  24.6900         43470.000      60.150
  24.7900         43526.000      60.448
  24.8900         43566.000      60.050
  24.9900         43364.000      60.117
  25.0900         43549.000      60.225
  25.1900         43528.000      59.607
  25.2900         43979.000      60.514
  25.3900         43588.000      60.308
  25.4900         43819.000      60.183
  25.5900         44063.000      60.811
  25.6900         43471.000      59.624
  25.7900         43651.000      61.139
  25.8900         43967.000      61.311
  25.9900         43740.000      60.572
  26.0900         43506.000      60.729
  26.1900         43685.000      59.682
  26.2900         43320.000      60.860
  26.3900         43649.000      60.100
  26.4900         43322.000      60.166
  26.5900         44159.000      61.000
  26.6900         43411.000      60.679
  26.7900         43226.000      59.456
  26.8900         43234.000      60.803
  26.9900         43345.000      60.984
  27.0900         43508.000      60.440
  27.1900         43700.000      60.647
  27.2900         43570.000      59.992
  27.3900         43667.000      59.925
  27.4900         43453.000      59.540
  27.5900         43549.000      60.374
  27.6900         43922.000      61.196
  27.7900         43504.000      60.374
  27.8900         43684.000      60.332
  27.9900         43596.000      60.589
  28.0900         43819.000      60.067
  28.1900         44076.000      60.671
  28.2900         43942.000      60.498
  28.3900         43894.000      60.597
  28.4900         43965.000      60.943
  28.5900         43401.000      60.225
  28.6900         43534.000      59.933
  28.7900         44062.000      59.975
  28.8900         44005.000      60.572
  28.9900         43807.000      60.324
  29.0900         43982.000      61.563
  29.1900         43987.000      60.473
  29.2900         43681.000      61.139
  29.3900         43936.000      60.622
  29.4900         44017.000      60.133
  29.5900         44483.000      60.860
  29.6900         44310.000      61.033
  29.7900         44552.000      60.514
  29.8900         44654.000      61.474
  29.9900         44289.000      61.188
  30.0900         44875.000      61.074
  30.1900         44346.000      61.245
  30.2900         44461.000      60.341
  30.3900         44695.000      61.351
  30.4900         45454.000      60.704
  30.5900         45596.000      61.725
  30.6900         46262.000      62.976
  30.7900         47541.000      62.610
  30.8900         49625.000      65.138
  30.9900         52699.000      65.620
  31.0900         56966.000      68.615
  31.1900         61751.000      72.118
  31.2900         65309.000      74.317
  31.3900         65128.000      73.627
  31.4900         61747.000      71.582
  31.5900         57485.000      69.793
  31.6900         52593.000      65.810
  31.7900         49423.000      64.498
  31.8900         47441.000      62.634
  31.9900         46204.000      62.474
  32.0900         45455.000      62.282
  32.1900         45366.000      61.839
  32.2900         44772.000      60.539
  32.3900         44637.000      60.754
  32.4900         44678.000      61.441
  32.5900         44069.000      60.721
  32.6900         44492.000      61.368
  32.7900         44127.000      60.316
  32.8900         43790.000      60.017
  32.9900         44008.000      60.258
  33.0900         43704.000      60.514
  33.1900         44120.000      59.975
  33.2900         44106.000      60.150
  33.3900         43494.000      60.415
  33.4900         43844.000      60.622
  33.5900         43659.000      60.481
  33.6900         43855.000      60.075
  33.7900         43858.000      60.548
  33.8900         43855.000      59.674
  33.9900         44135.000      60.934
  34.0900         43840.000      60.291
  34.1900         44435.000      60.448
  34.2900         44074.000      60.754
  34.3900         43996.000      60.828
  34.4900         44085.000      61.041
  34.5900         43615.000      60.795
  34.6900         43608.000      60.893
  34.7900         43377.000      60.415
  34.8900         43672.000      60.556
  34.9900         44041.000      60.457
  35.0900         43585.000      60.671
  35.1900         43708.000      59.992
  35.2900         43577.000      59.422
  35.3900         43547.000      60.225
  35.4900         43567.000      60.017
  35.5900         43718.000      61.000
  35.6900         43595.000      60.407
  35.7900         43569.000      60.158
  35.8900         43754.000      60.349
  35.9900         44144.000      60.050
  36.0900         44483.000      61.196
  36.1900         45688.000      62.514
  36.2900         46897.000      61.668
  36.3900         47054.000      63.111
  36.4900         46147.000      61.847
  36.5900         45667.000      62.394
  36.6900         44710.000      60.597
  36.7900         44018.000      61.709
  36.8900         43440.000      61.066
  36.9900         43578.000      60.663
  37.0900         43713.000      59.975
  37.1900         43481.000      59.900
  37.2900         43274.000      60.067
  37.3900         43495.000      61.278
  37.4900         43714.000      60.025
  37.5900         43376.000      60.415
  37.6900         43061.000      60.589
  37.7900         43061.000      60.581
  37.8900         42932.000      60.216
  37.9900         43032.000      60.440
  38.0900         43160.000      59.758
  38.1900         43209.000      59.783
  38.2900         43486.000      59.967
  38.3900         42817.000      60.415
  38.4900         43088.000      59.942
  38.5900         43246.000      60.108
  38.6900         42953.000      59.632
  38.7900         42917.000      60.424
  38.8900         42854.000      59.296
  38.9900         43031.000      59.287
  39.0900         43067.000      59.758
  39.1900         43190.000      60.216
  39.2900         43299.000      59.875
  39.3900         43271.000      60.581
  39.4900         43154.000      59.565
  39.5900         42765.000      60.225
  39.6900         43182.000      59.867
  39.7900         43353.000      61.147
  39.8900         43380.000      60.382
  39.9900         42765.000      59.841
  40.0900         43030.000      59.733
  40.1900         43093.000      60.424
  40.2900         43183.000      60.133
  40.3900         42444.000      59.900
  40.4900         42661.000      60.283
  40.5900         42594.000      58.975
  40.6900         42761.000      59.925
  40.7900         42911.000      60.390
  40.8900         42734.000      59.758
  40.9900         42939.000      59.346
  41.0900         42643.000      59.632
  41.1900         42596.000      60.614
  41.2900         42322.000      60.042
  41.3900         42348.000      59.135
  41.4900         42662.000      60.025
  41.5900         42471.000      59.841
  41.6900         42877.000      60.141
  41.7900         42689.000      59.498
  41.8900         42779.000      59.573
  41.9900         42590.000      59.456
  42.0900         42685.000      60.819
  42.1900         42985.000      59.833
  42.2900         42542.000      59.169
  42.3900         42826.000      58.907
  42.4900         43029.000      59.783
  42.5900         42590.000      59.883
  42.6900         42704.000      60.341
  42.7900         42786.000      59.304
  42.8900         42668.000      60.266
  42.9900         42654.000      59.691
  43.0900         42669.000      59.867
  43.1900         42727.000      59.766
  43.2900         42612.000      59.875
  43.3900         42883.000      60.225
  43.4900         42626.000      59.304
  43.5900         42856.000      60.572
  43.6900         42804.000      60.166
  43.7900         42705.000      58.949
  43.8900         42453.000      59.346
  43.9900         42558.000      59.169
  44.0900         43158.000      61.016
  44.1900         42259.000      60.000
  44.2900         42602.000      60.216
  44.3900         42710.000      59.733
  44.4900         43176.000      59.287
  44.5900         42742.000      59.389
  44.6900         43015.000      60.216
  44.7900         42503.000      59.051
  44.8900         42796.000      59.599
  44.9900         42664.000      59.582
  45.0900         42809.000      59.405
  45.1900         42463.000      59.447
  45.2900         42448.000      60.133
  45.3900         42542.000      60.200
  45.4900         42593.000      59.590
  45.5900         42807.000      59.447
  45.6900         42914.000      59.724
  45.7900         42361.000      60.150
  45.8900         42758.000      59.607
  45.9900         42612.000      60.150
  46.0900         42334.000      59.699
  46.1900         42751.000      59.641
  46.2900         42562.000      59.025
  46.3900         42334.000      59.515
  46.4900         42731.000      60.266
  46.5900         42996.000      60.366
  46.6900         42427.000      60.025
  46.7900         42742.000      59.958
  46.8900         42173.000      59.582
  46.9900         42067.000      59.186
  47.0900         42611.000      59.850
  47.1900         42791.000      60.125
  47.2900         43005.000      59.682
  47.3900         42718.000      59.615
  47.4900         43215.000      59.816
  47.5900         43534.000      60.042
  47.6900         43671.000      60.473
  47.7900         43806.000      60.647
  47.8900         43861.000      60.117
  47.9900         43880.000      60.357
  48.0900         43447.000      59.127
  48.1900         43027.000      59.456
  48.2900         42646.000      59.397
  48.3900         42633.000      59.042
  48.4900         42399.000      59.992
  48.5900         42635.000      59.304
  48.6900         42591.000      59.808
  48.7900         42998.000      59.456
  48.8900         42472.000      59.682
  48.9900         42699.000      59.741
  49.0900         42427.000      58.711
  49.1900         42683.000      59.741
  49.2900         42452.000      59.059
  49.3900         43033.000      59.431
  49.4900         42780.000      59.515
  49.5900         42537.000      60.316
  49.6900         42552.000      58.839
  49.7900         42227.000      58.754
  49.8900         43066.000      59.925
  49.9900         42638.000      60.017
  50.0900         42589.000      59.766
  50.1900         42903.000      60.025
  50.2900         42760.000      59.615
  50.3900         42292.000      59.816
  50.4900         42390.000      58.720
  50.5900         42858.000      60.465
  50.6900         42419.000      59.363
  50.7900         42720.000      60.158
  50.8900         42816.000      59.498
  50.9900         42633.000      59.405
  51.0900         42824.000      60.191
  51.1900         42960.000      60.042
  51.2900         42614.000      59.093
  51.3900         42995.000      59.808
  51.4900         43178.000      60.803
  51.5900         43721.000      59.708
  51.6900         43253.000      59.983
  51.7900         44203.000      60.581
  51.8900         45145.000      60.630
  51.9900         46549.000      62.314
  52.0900         47882.000      63.537
  52.1900         49218.000      64.475
  52.2900         51284.000      66.551
  52.3900         51890.000      66.166
  52.4900         50937.000      66.280
  52.5900         49715.000      63.364
  52.6900         47706.000      63.522
  52.7900         46099.000      62.193
  52.8900         44895.000      62.064
  52.9900         43683.000      60.150
  53.0900         43229.000      60.017
  53.1900         43023.000      60.465
  53.2900         42870.000      59.237
  53.3900         42764.000      59.473
  53.4900         42500.000      58.941
  53.5900         42833.000      59.858
  53.6900         42470.000      58.847
  53.7900         42610.000      59.271
  53.8900         42704.000      59.967
  53.9900         42088.000      59.059
  54.0900         42509.000      60.200
  54.1900         42537.000      60.200
  54.2900         42425.000      60.316
  54.3900         42328.000      59.657
  54.4900         42813.000      60.951
  54.5900         42669.000      59.456
  54.6900         42678.000      60.663
  54.7900         42346.000      60.216
  54.8900         42726.000      58.796
  54.9900         42983.000      59.933
  55.0900         42648.000      59.691
  55.1900         42311.000      59.447
  55.2900         42851.000      60.083
  55.3900         42729.000      59.883
  55.4900         42691.000      59.076
  55.5900         42573.000      59.833
  55.6900         42471.000      59.447
  55.7900         42715.000      59.590
  55.8900         42382.000      58.924
  55.9900         42286.000      59.119
  56.0900         42636.000      60.341
  56.1900         42091.000      59.850
  56.2900         42761.000      59.958
  56.3900         42694.000      59.573
  56.4900         42582.000      59.582
  56.5900         42563.000      59.245
  56.6900         42344.000      59.515
  56.7900         42479.000      59.254
  56.8900         42246.000      59.708
  56.9900         42505.000      59.068
  57.0900         42117.000      59.237
  57.1900         42288.000      59.749
  57.2900         42398.000      59.892
  57.3900         42127.000      58.898
  57.4900         42387.000      59.766
  57.5900         42017.000      60.241
  57.6900         42052.000      59.397
  57.7900         42110.000      58.992
  57.8900         42274.000      59.313
  57.9900         42181.000      59.068
  58.0900         42382.000      60.150
  58.1900         42316.000      59.313
  58.2900         42561.000      60.108
  58.3900         42103.000      58.762
  58.4900         42273.000      60.017
  58.5900         42294.000      59.093
  58.6900         42387.000      58.558
  58.7900         42235.000      60.183
  58.8900         42323.000      58.864
  58.9900         42180.000      58.813
  59.0900         42633.000      59.422
  59.1900         42449.000      59.607
  59.2900         42361.000      59.883
  59.3900         42535.000      60.075
  59.4900         42151.000      58.915
  59.5900         42333.000      59.363
  59.6900         42446.000      58.694
  59.7900         42412.000      59.338
  59.8900         42597.000      60.308
  59.9900         42342.000      59.304
  60.0900         42972.000      59.599
  60.1900         42638.000      60.108
  60.2900         42654.000      59.841
  60.3900         42502.000      58.958
  60.4900         42504.000      60.158
  60.5900         42670.000      59.481
  60.6900         42494.000      59.211
  60.7900         42585.000      59.733
  60.8900         42736.000      59.195
  60.9900         42458.000      60.655
  61.0900         42924.000      59.958
  61.1900         43320.000      60.175
  61.2900         43508.000      59.657
  61.3900         43392.000      59.489
  61.4900         43974.000      60.150
  61.5900         44838.000      61.221
  61.6900         44779.000      60.787
  61.7900         45933.000      62.209
  61.8900         46443.000      62.586
  61.9900         47944.000      63.143
  62.0900         48905.000      65.000
  62.1900         50268.000      64.023
  62.2900         50423.000      64.374
  62.3900         50623.000      64.807
  62.4900         49643.000      64.514
  62.5900         48735.000      64.591
  62.6900         47760.000      63.079
  62.7900         46901.000      62.817
  62.8900         45772.000      60.943
  62.9900         44947.000      61.041
  63.0900         44155.000      59.867
  63.1900         43784.000      60.770
  63.2900         43761.000      60.291
  63.3900         43789.000      60.721
  63.4900         43892.000      61.351
  63.5900         44228.000      60.688
  63.6900         43816.000      60.638
  63.7900         44108.000      59.942
  63.8900         44329.000      61.482
  63.9900         45084.000      61.164
  64.0900         45507.000      61.327
  64.1900         46090.000      61.952
  64.2900         47263.000      62.330
  64.3900         48984.000      64.428
  64.4900         51187.000      65.429
  64.5900         54319.000      66.558
  64.6900         59096.000      71.099
  64.7900         65786.000      74.967
  64.8900         72608.000      76.662
  64.9900         80798.000      81.725
  65.0900         89328.000      86.626
  65.1900         97555.000      90.620
  65.2900        103833.000      93.392
  65.3900        108362.000      95.415
  65.4900        107983.000      95.237
  65.5900        104382.000      93.803
  65.6900         99098.000      90.515
  65.7900         89894.000      87.063
  65.8900         81076.000      81.884
  65.9900         72834.000      77.240
  66.0900         64925.000      73.376
  66.1900         58938.000      69.635
  66.2900         54632.000      67.831
  66.3900         51323.000      65.871
  66.4900         48970.000      63.937
  66.5900         46818.000      62.073
  66.6900         46216.000      62.530
  66.7900         45446.000      61.604
  66.8900         44750.000      61.895
  66.9900         44513.000      60.762
  67.0900         43649.000      60.000
  67.1900         43573.000      59.850
  67.2900         43213.000      60.671
  67.3900         43043.000      59.682
  67.4900         43045.000      60.033
  67.5900         43275.000      60.332
  67.6900         43353.000      60.581
  67.7900         42912.000      59.363
  67.8900         42861.000      59.397
  67.9900         42367.000      60.108
  68.0900         42617.000      59.296
  68.1900         42160.000      58.284
  68.2900         41596.000      58.754
  68.3900         41833.000      58.086
  68.4900         41312.000      59.144
  68.5900         41194.000      58.489
  68.6900         40872.000      58.086
  68.7900         41491.000      59.034
  68.8900         41426.000      59.498
  68.9900         40904.000      58.711
  69.0900         41102.000      58.737
  69.1900         41187.000      58.771
  69.2900         41451.000      59.313
  69.3900         40801.000      58.856
  69.4900         41326.000      58.438
  69.5900         41041.000      58.215
  69.6900         40716.000      58.009
  69.7900         40715.000      59.034
  69.8900         40846.000      58.515
  69.9900         41049.000      58.617
  70.0900         40939.000      58.129
  70.1900         40454.000      58.421
  70.2900         40449.000      57.385
  70.3900         40924.000      58.404
  70.4900         40612.000      57.948
  70.5900         40701.000      58.378
  70.6900         40689.000      58.583
  70.7900         40444.000      58.292
  70.8900         40535.000      57.983
  70.9900         40979.000      58.034
  71.0900         41016.000      57.974
  71.1900         41096.000      58.335
  71.2900         41620.000      59.119
  71.3900         41852.000      59.287
  71.4900         42134.000      60.058
  71.5900         42695.000      60.539
  71.6900         43245.000      59.699
  71.7900         43494.000      59.397
  71.8900         43690.000      60.266
  71.9900         44169.000      60.291
  72.0900         44496.000      61.205
  72.1900         44316.000      59.498
  72.2900         43711.000      60.893
  72.3900         43585.000      60.117
  72.4900         43241.000      60.191
  72.5900         42953.000      59.557
  72.6900         42247.000      59.380
  72.7900         41754.000      59.135
  72.8900         41430.000      59.237
  72.9900         41446.000      57.732
  73.0900         41263.000      58.924
  73.1900         40950.000      58.779
  73.2900         40706.000      57.871
  73.3900         40818.000      58.847
  73.4900         40698.000      58.215
  73.5900         40940.000      59.025
  73.6900         41335.000      58.711
  73.7900         40906.000      58.737
  73.8900         40728.000      58.352
  73.9900         40794.000      57.896
  74.0900         40475.000      58.652
  74.1900         40662.000      58.711
  74.2900         40859.000      57.914
  74.3900         40840.000      57.948
  74.4900         40641.000      58.924
  74.5900         40632.000      58.387
  74.6900         40486.000      57.810
  74.7900         40925.000      57.446
  74.8900         40730.000      58.958
  74.9900         41209.000      59.025
  75.0900         40980.000      58.745
  75.1900         41298.000      58.447
  75.2900         41822.000      59.641
  75.3900         41570.000      59.059
  75.4900         41953.000      60.125
  75.5900         42739.000      60.424
  75.6900         42909.000      59.791
  75.7900         44163.000      60.457
  75.8900         45523.000      61.123
  75.9900         46870.000      62.562
  76.0900         48399.000      62.881
  76.1900         51469.000      65.818
  76.2900         54790.000      68.029
  76.3900         59588.000      70.704
  76.4900         64485.000      74.014
  76.5900         70709.000      77.524
  76.6900         76811.000      79.568
  76.7900         84518.000      83.774
  76.8900         90420.000      86.545
  76.9900         97030.000      88.927
  77.0900        101256.000      92.212
  77.1900        103935.000      93.188
  77.2900        104222.000      93.424
  77.3900        101991.000      93.075
  77.4900         98361.000      89.794
  77.5900         92202.000      88.074
  77.6900         86028.000      84.764
  77.7900         78837.000      81.884
  77.8900         71788.000      77.097
  77.9900         65792.000      73.777
  78.0900         60316.000      71.993
  78.1900         55495.000      68.418
  78.2900         52918.000      66.272
  78.3900         49969.000      64.078
  78.4900         47797.000      62.849
  78.5900         46098.000      62.650
  78.6900         45000.000      61.628
  78.7900         44455.000      61.612
  78.8900         43395.000      60.655
  78.9900         42987.000      59.833
  79.0900         42833.000      59.144
  79.1900         42250.000      59.615
  79.2900         42196.000      58.847
  79.3900         41794.000      59.439
  79.4900         41356.000      59.447
  79.5900         41541.000      59.271
  79.6900         41219.000      59.245
  79.7900         40714.000      57.723
  79.8900         40741.000      57.402
  79.9900         40209.000      57.940
  80.0900         40183.000      58.000
  80.1900         40295.000      57.706
  80.2900         39827.000      57.411
  80.3900         40127.000      57.263
  80.4900         40072.000      57.376
  80.5900         39418.000      57.845
  80.6900         39584.000      57.810
  80.7900         39452.000      57.324
  80.8900         40079.000      57.385
  80.9900         39608.000      57.402
  81.0900         39578.000      56.675
  81.1900         39298.000      57.463
  81.2900         39063.000      57.585
  81.3900         39233.000      57.376
  81.4900         39259.000      57.079
  81.5900         39332.000      57.940
  81.6900         39187.000      57.723
  81.7900         39232.000      57.271
  81.8900         39436.000      57.428
  81.9900         39524.000      57.393
  82.0900         38789.000      57.271
  82.1900         39005.000      57.018
  82.2900         39399.000      57.193
  82.3900         38656.000      56.223
  82.4900         38998.000      56.763
  82.5900         39020.000      57.271
  82.6900         38934.000      57.905
  82.7900         38499.000      56.187
  82.8900         38656.000      56.771
  82.9900         39015.000      56.675
  83.0900         39047.000      57.411
  83.1900         38573.000      55.911
  83.2900         38762.000      55.893
  83.3900         38830.000      57.393
  83.4900         39008.000      57.123
  83.5900         38467.000      56.798
  83.6900         38792.000      56.312
  83.7900         38238.000      56.886
  83.8900         38959.000      57.359
  83.9900         39017.000      56.551
  84.0900         39249.000      57.706
  84.1900         39236.000      56.312
  84.2900         38612.000      57.210
  84.3900         39131.000      57.201
  84.4900         39469.000      57.896
  84.5900         40037.000      58.095
  84.6900         40499.000      57.637
  84.7900         40846.000      57.149
  84.8900         41011.000      58.694
  84.9900         41577.000      58.541
  85.0900         42486.000      58.966
  85.1900         42502.000      59.405
  85.2900         43097.000      60.100
  85.3900         43362.000      59.599
  85.4900         43945.000      61.008
  85.5900         44288.000      60.390
  85.6900         44336.000      60.885
  85.7900         43828.000      59.917
  85.8900         43629.000      59.975
  85.9900         43614.000      60.506
  86.0900         42629.000      59.590
  86.1900         42287.000      59.068
  86.2900         41702.000      58.958
  86.3900         41164.000      58.481
  86.4900         40269.000      58.172
  86.5900         39577.000      57.463
  86.6900         39666.000      58.026
  86.7900         39193.000      57.428
  86.8900         39002.000      57.332
  86.9900         38609.000      57.271
  87.0900         38860.000      57.359
  87.1900         38384.000      57.070
  87.2900         38332.000      56.683
  87.3900         38655.000      56.507
  87.4900         38117.000      56.471
  87.5900         37999.000      56.036
  87.6900         38054.000      56.956
  87.7900         38125.000      56.187
  87.8900         38193.000      56.639
  87.9900         38428.000      56.798
  88.0900         38645.000      56.613
  88.1900         38418.000      56.116
  88.2900         38455.000      56.515
  88.3900         38503.000      56.895
  88.4900         39055.000      56.427
  88.5900         39032.000      58.017
  88.6900         38853.000      56.089
  88.7900         38566.000      56.886
  88.8900         38725.000      56.196
  88.9900         38613.000      56.921
  89.0900         38239.000      56.974
  89.1900         38462.000      56.965
  89.2900         37833.000      55.200
  89.3900         38021.000      57.245
  89.4900         37803.000      56.471
  89.5900         37550.000      56.798
  89.6900         37918.000      56.223
  89.7900         37913.000      56.462
  89.8900         37703.000      55.525
  89.9900         38200.000      56.400
  90.0900         37771.000      55.902
  90.1900         38002.000      56.303
  90.2900         37847.000      55.875
  90.3900         37912.000      56.000
  90.4900         37982.000      55.776
  90.5900         37782.000      55.182
  90.6900         38053.000      55.991
  90.7900         38048.000      55.489
  90.8900         37896.000      57.645
  90.9900         37946.000      56.267
  91.0900         37937.000      56.187
  91.1900         37569.000      56.683
  91.2900         37864.000      56.027
  91.3900         37920.000      56.365
  91.4900         37644.000      55.426
  91.5900         37569.000      55.254
  91.6900         37451.000      55.417
  91.7900         37296.000      56.391
  91.8900         37499.000      55.624
  91.9900         37547.000      56.391
  92.0900         37741.000      55.588
  92.1900         37500.000      55.263
  92.2900         37508.000      55.606
  92.3900         37497.000      56.569
  92.4900         37730.000      55.821
  92.5900         37476.000      55.794
  92.6900         37743.000      55.776
  92.7900         37177.000      55.055
  92.8900         37559.000      55.371
  92.9900         37359.000      56.045
  93.0900         37652.000      55.471
  93.1900         37675.000      56.258
  93.2900         37653.000      56.098
  93.3900         37355.000      55.973
  93.4900         37274.000      55.929
  93.5900         37540.000      56.258
  93.6900         37268.000      56.789
  93.7900         37524.000      55.597
  93.8900         37333.000      55.615
  93.9900         37499.000      56.125
  94.0900         37909.000      56.347
  94.1900         37677.000      56.258
  94.2900         37554.000      55.866
  94.3900         37188.000      56.125
  94.4900         37255.000      56.134
  94.5900         37520.000      55.236
  94.6900         37610.000      56.613
  94.7900         37431.000      55.839
  94.8900         37438.000      55.390
  94.9900         37233.000      55.118
  95.0900         37705.000      56.249
  95.1900         37550.000      56.374
  95.2900         37276.000      55.218
  95.3900         37106.000      55.839
  95.4900         37399.000      55.281
  95.5900         37323.000      56.116
  95.6900         37662.000      56.169
  95.7900         37180.000      55.848
  95.8900         38080.000      56.249
  95.9900         37835.000      55.109
  96.0900         37800.000      56.223
  96.1900         37744.000      56.824
  96.2900         38180.000      55.290
  96.3900         37636.000      56.736
  96.4900         37871.000      56.134
  96.5900         37759.000      56.205
  96.6900         37723.000      56.223
  96.7900         37213.000      56.098
  96.8900         37480.000      55.245
  96.9900         37275.000      55.633
  97.0900         37608.000      57.245
  97.1900         37374.000      56.347
  97.2900         37343.000      55.740
  97.3900         37086.000      55.785
  97.4900         37925.000      55.955
  97.5900         37044.000      55.498
  97.6900         37239.000      54.936
  97.7900         37428.000      55.767
  97.8900         37554.000      56.312
  97.9900         37348.000      55.946
  98.0900         37368.000      55.687
  98.1900         37192.000      55.893
  98.2900         37272.000      55.597
  98.3900         37127.000      55.678
  98.4900         37322.000      55.154
  98.5900         37494.000      54.982
  98.6900         37516.000      57.175
  98.7900         37679.000      56.214
  98.8900         37725.000      55.937
  98.9900         37768.000      55.839
  99.0900         37478.000      56.303
  99.1900         38240.000      56.249
  99.2900         38334.000      56.815
  99.3900         38743.000      55.955
  99.4900         38522.000      57.507
  99.5900         38504.000      57.219
  99.6900         38738.000      56.498
  99.7900         39036.000      56.178
  99.8900         38956.000      57.254
  99.9900         38816.000      56.622
 100.0900         38559.000      56.710
 100.1900         38547.000      56.701
 100.2900         38293.000      56.374
 100.3900         38288.000      56.586
 100.4900         37778.000      56.356
 100.5900         37407.000      56.515
 100.6900         37723.000      56.754
 100.7900         37190.000      55.785
 100.8900         37668.000      56.427
 100.9900         37504.000      55.561
 101.0900         37393.000      56.462
 101.1900         37433.000      56.036
 101.2900         37250.000      55.353
 101.3900         37220.000      56.498
 101.4900         36889.000      55.687
 101.5900         37290.000      56.089
 101.6900         37355.000      55.633
 101.7900         37753.000      57.035
 101.8900         37609.000      55.163
 101.9900         37504.000      55.245
 102.0900         37214.000      55.776
 102.1900         37301.000      55.866
 102.2900         37140.000      55.498
 102.3900         37162.000      55.570
 102.4900         37434.000      56.303
 102.5900         37192.000      55.245
 102.6900         37176.000      55.785
 102.7900         37282.000      56.400
 102.8900         37226.000      55.462
 102.9900         37067.000      55.803
 103.0900         37232.000      56.480
 103.1900         36823.000      55.561
 103.2900         37480.000      55.525
 103.3900         36912.000      54.663
 103.4900         37227.000      55.723
 103.5900         37435.000      55.749
 103.6900         37075.000      56.178
 103.7900         37090.000      55.660
 103.8900         36974.000      55.588
 103.9900         37119.000      56.241
 104.0900         37265.000      55.552
 104.1900         37024.000      55.290
 104.2900         37431.000      55.937
 104.3900         37737.000      55.955
 104.4900         37111.000      55.758
 104.5900         37281.000      56.160
 104.6900         37624.000      56.000
 104.7900         37792.000      54.295
 104.8900         37569.000      55.731
 104.9900         37855.000      56.116
 105.0900         37443.000      55.615
 105.1900         37641.000      56.666
 105.2900         37952.000      56.903
 105.3900         38032.000      55.794
 105.4900         37974.000      56.267
 105.5900         37893.000      56.727
 105.6900         38293.000      56.560
 105.7900         38654.000      56.595
 105.8900         38601.000      56.833
 105.9900         38920.000      56.745
 106.0900         38930.000      56.965
 106.1900         39317.000      58.660
 106.2900         39906.000      58.344
 106.3900         40096.000      58.164
 106.4900         40996.000      58.669
 106.5900         41909.000      58.275
 106.6900         42817.000      60.100
 106.7900         43843.000      61.319
 106.8900         44704.000      61.604
 106.9900         46176.000      62.024
 107.0900         47742.000      63.734
 107.1900         48929.000      64.312
 107.2900         50288.000      64.699
 107.3900         52072.000      65.917
 107.4900         53842.000      67.298
 107.5900         55410.000      67.431
 107.6900         57343.000      68.993
 107.7900         58907.000      70.171
 107.8900         60077.000      71.113
 107.9900         60867.000      71.407
 108.0900         62225.000      71.764
 108.1900         62369.000      72.567
 108.2900         62765.000      73.376
 108.3900         62794.000      71.204
 108.4900         62029.000      71.281
 108.5900         60923.000      72.007
 108.6900         60165.000      70.922
 108.7900         59417.000      70.915
 108.8900         57130.000      68.717
 108.9900         55612.000      68.359
 109.0900         54037.000      67.290
 109.1900         52328.000      66.068
 109.2900         50454.000      65.345
 109.3900         49441.000      63.875
 109.4900         47596.000      63.411
 109.5900         46421.000      62.362
 109.6900         45064.000      61.245
 109.7900         43760.000      60.630
 109.8900         42585.000      58.745
 109.9900         42281.000      59.682
 110.0900         40977.000      58.592
 110.1900         40490.000      57.931
 110.2900         39372.000      57.359
 110.3900         39063.000      56.824
 110.4900         39036.000      57.637
 110.5900         38583.000      56.824
 110.6900         38170.000      56.498
 110.7900         37807.000      56.196
 110.8900         37638.000      55.534
 110.9900         37199.000      55.902
 111.0900         38134.000      56.498
 111.1900         37538.000      56.789
 111.2900         37251.000      55.597
 111.3900         37188.000      56.338
 111.4900         37489.000      56.542
 111.5900         37419.000      54.955
 111.6900         36855.000      56.241
 111.7900         37264.000      55.857
 111.8900         37171.000      55.669
 111.9900         36813.000      55.839
 112.0900         37086.000      55.597
 112.1900         37128.000      55.749
 112.2900         37213.000      56.727
 112.3900         36999.000      56.515
 112.4900         37070.000      55.570
 112.5900         37001.000      56.329
 112.6900         36880.000      56.285
 112.7900         36820.000      55.254
 112.8900         37045.000      55.821
 112.9900         37082.000      56.462
 113.0900         36907.000      54.955
 113.1900         36926.000      54.818
 113.2900         37214.000      56.312
 113.3900         37348.000      55.362
 113.4900         36867.000      56.027
 113.5900         37150.000      55.803
 113.6900         37005.000      56.009
 113.7900         36732.000      55.109
 113.8900         37154.000      55.371
 113.9900         36884.000      55.678
 114.0900         37240.000      55.588
 114.1900         36902.000      55.911
 114.2900         36563.000      55.462
 114.3900         36494.000      53.861
 114.4900         36126.000      55.498
 114.5900         36654.000      56.160
 114.6900         36633.000      55.064
 114.7900         36420.000      55.534
 114.8900         36303.000      55.785
 114.9900         36329.000      55.218
 115.0900         36437.000      55.172
 115.1900         36342.000      55.335
 115.2900         35881.000      54.277
 115.3900         35952.000      54.827
 115.4900         35950.000      54.635
 115.5900         36335.000      55.109
 115.6900         36256.000      54.781
 115.7900         36122.000      54.470
 115.8900         35780.000      54.093
 115.9900         36203.000      55.579
 116.0900         36185.000      55.390
 116.1900         36611.000      54.955
 116.2900         36320.000      55.893
 116.3900         36019.000      55.390
 116.4900         35763.000      54.626
 116.5900         35959.000      55.381
 116.6900         36133.000      55.453
 116.7900         35879.000      55.154
 116.8900         36057.000      54.415
 116.9900         36047.000      55.362
 117.0900         36282.000      55.426
 117.1900         36212.000      55.624
 117.2900         36250.000      54.727
 117.3900         36012.000      54.342
 117.4900         36140.000      54.699
 117.5900         36308.000      54.772
 117.6900         36399.000      55.534
 117.7900         35992.000      54.139
 117.8900         35999.000      53.619
 117.9900         35909.000      54.516
 118.0900         36264.000      55.489
 118.1900         36498.000      54.534
 118.2900         36107.000      54.982
 118.3900         36370.000      54.544
 118.4900         36477.000      55.678
 118.5900         35910.000      55.335
 118.6900         36705.000      54.973
 118.7900         36317.000      54.323
 118.8900         36597.000      54.909
 118.9900         36377.000      54.351
 119.0900         36336.000      54.617
 119.1900         36258.000      55.651
 119.2900         36464.000      55.615
 119.3900         36513.000      54.882
 119.4900         37108.000      55.371
 119.5900         37278.000      55.687
 119.6900         37212.000      56.745
 119.7900         36582.000      55.263
 119.8900         37283.000      55.731
 119.9900         37591.000      55.973
 120.0900         37951.000      56.701
 120.1900         37523.000      55.929
 120.2900         37784.000      56.258
 120.3900         38018.000      56.214
 120.4900         38454.000      56.974
 120.5900         38487.000      57.061
 120.6900         38826.000      56.018
 120.7900         39115.000      56.745
 120.8900         39856.000      57.140
 120.9900         40681.000      58.189
 121.0900         41152.000      59.615
 121.1900         41545.000      60.158
 121.2900         42842.000      59.699
 121.3900         43886.000      60.605
 121.4900         44827.000      61.847
 121.5900         46430.000      62.666
 121.6900         47929.000      64.133
 121.7900         49969.000      64.498
 121.8900         52227.000      66.083
 121.9900         53713.000      67.469
 122.0900         56130.000      68.768
 122.1900         58425.000      70.114
 122.2900         61245.000      71.840
 122.3900         63531.000      72.979
 122.4900         66420.000      74.317
 122.5900         69604.000      76.485
 122.6900         72445.000      77.994
 122.7900         75732.000      79.063
 122.8900         78090.000      81.627
 122.9900         81544.000      82.298
 123.0900         84200.000      85.035
 123.1900         87495.000      85.000
 123.2900         90355.000      87.000
 123.3900         92947.000      87.772
 123.4900         94779.000      89.258
 123.5900         96320.000      89.816
 123.6900         98208.000      90.172
 123.7900         99043.000      91.313
 123.8900         99992.000      91.652
 123.9900         99166.000      91.482
 124.0900         99067.000      90.288
 124.1900         97937.000      89.911
 124.2900         96458.000      89.191
 124.3900         94708.000      89.275
 124.4900         93306.000      87.613
 124.5900         90322.000      87.401
 124.6900         87031.000      85.170
 124.7900         83262.000      84.172
 124.8900         80840.000      82.274
 124.9900         78363.000      81.247
 125.0900         75471.000      78.956
 125.1900         72576.000      78.058
 125.2900         69574.000      76.289
 125.3900         66639.000      74.639
 125.4900         63681.000      73.457
 125.5900         60765.000      70.576
 125.6900         58201.000      69.828
 125.7900         55947.000      67.171
 125.8900         53571.000      67.409
 125.9900         51909.000      66.098
 126.0900         50032.000      64.312
 126.1900         48618.000      63.230
 126.2900         47052.000      63.127
 126.3900         45576.000      61.879
 126.4900         44608.000      61.335
 126.5900         43615.000      60.630
 126.6900         43020.000      59.975
 126.7900         41760.000      59.858
 126.8900         41264.000      58.915
 126.9900         40941.000      57.706
 127.0900         40059.000      57.489
 127.1900         39746.000      57.411
 127.2900         38973.000      57.862
 127.3900         38333.000      56.586
 127.4900         38485.000      56.205
 127.5900         37838.000      56.383
 127.6900         37816.000      55.821
 127.7900         37496.000      56.533
 127.8900         37401.000      54.736
 127.9900         37123.000      55.884
 128.0900         37066.000      55.507
 128.1900         36923.000      56.383
 128.2900         36765.000      55.073
 128.3900         36646.000      55.408
 128.4900         36503.000      55.145
 128.5900             3.000       1.000
 128.6900             5.000       1.414
