XYDATA SparksLave Co3O4-quenched_650_1.5K 
INTER        1       1       0     0.100000
TEMP       1.41160      1.61330      1.50000
! d1b Date 16-Nov-11 Time 01:45:53 Run 130094 130083>130094
! d1b Date 16-Nov-11 Time 01:45:53 Run 130094 130083>130094
! Monitor/counts, Counting time/sec:  1.09440e+007 1.09440e+007
   0.7900             2.000       1.000
   0.8900             6.000       1.000
   0.9900          1815.000      12.166
   1.0900          1849.000      12.000
   1.1900          1730.000      11.916
   1.2900          1683.000      12.410
   1.3900          1742.000      11.662
   1.4900          1787.000      12.490
   1.5900          1840.000      11.446
   1.6900          1915.000      12.530
   1.7900          2574.000      15.297
   1.8900          3858.000      17.833
   1.9900          6352.000      23.516
   2.0900          8810.000      27.258
   2.1900         11294.000      30.935
   2.2900         14056.000      34.511
   2.3900         17636.000      39.421
   2.4900         21648.000      42.919
   2.5900         25439.000      45.902
   2.6900         28824.000      49.325
   2.7900         31816.000      50.951
   2.8900         34424.000      52.811
   2.9900         37525.000      56.833
   3.0900         40457.000      58.421
   3.1900         43462.000      59.808
   3.2900         44517.000      60.274
   3.3900         45272.000      61.408
   3.4900         44481.000      61.376
   3.5900         44170.000      61.376
   3.6900         43052.000      60.017
   3.7900         42730.000      59.791
   3.8900         41700.000      59.515
   3.9900         42532.000      59.850
   4.0900         42720.000      59.565
   4.1900         42428.000      58.643
   4.2900         42381.000      59.557
   4.3900         42769.000      60.008
   4.4900         43352.000      59.615
   4.5900         44384.000      60.614
   4.6900         46159.000      61.830
   4.7900         47534.000      62.809
   4.8900         49081.000      63.961
   4.9900         50964.000      64.969
   5.0900         52195.000      66.317
   5.1900         53392.000      67.142
   5.2900         54704.000      67.683
   5.3900         56466.000      68.367
   5.4900         57602.000      69.361
   5.5900         58680.000      69.864
   5.6900         60303.000      70.583
   5.7900         61390.000      71.218
   5.8900         63232.000      72.719
   5.9900         64459.000      72.471
   6.0900         65373.000      74.115
   6.1900         64713.000      74.034
   6.2900         65605.000      74.095
   6.3900         65275.000      74.108
   6.4900         64810.000      72.705
   6.5900         64133.000      73.082
   6.6900         63931.000      71.937
   6.7900         63873.000      72.305
   6.8900         63275.000      72.201
   6.9900         62683.000      72.256
   7.0900         61926.000      72.021
   7.1900         61366.000      72.035
   7.2900         60728.000      71.260
   7.3900         59988.000      70.838
   7.4900         59415.000      70.171
   7.5900         58184.000      69.900
   7.6900         57737.000      69.412
   7.7900         56561.000      69.642
   7.8900         56231.000      68.666
   7.9900         55076.000      67.794
   8.0900         54377.000      67.661
   8.1900         53515.000      67.246
   8.2900         52944.000      66.000
   8.3900         51699.000      65.803
   8.4900         51652.000      64.707
   8.5900         50253.000      64.436
   8.6900         49717.000      64.250
   8.7900         48939.000      65.330
   8.8900         48345.000      63.953
   8.9900         46857.000      62.841
   9.0900         46516.000      62.185
   9.1900         45506.000      61.066
   9.2900         44478.000      61.652
   9.3900         43828.000      60.638
   9.4900         43555.000      60.581
   9.5900         42335.000      59.059
   9.6900         41592.000      57.879
   9.7900         40668.000      58.189
   9.8900         40025.000      57.671
   9.9900         39393.000      56.991
  10.0900         37942.000      56.107
  10.1900         37424.000      54.663
  10.2900         36965.000      54.415
  10.3900         35955.000      54.699
  10.4900         35663.000      54.415
  10.5900         34626.000      53.460
  10.6900         34336.000      53.282
  10.7900         33734.000      54.120
  10.8900         33500.000      52.488
  10.9900         33746.000      52.650
  11.0900         33120.000      52.877
  11.1900         32802.000      53.038
  11.2900         32635.000      52.182
  11.3900         32871.000      52.077
  11.4900         32619.000      53.123
  11.5900         32683.000      51.856
  11.6900         32506.000      52.067
  11.7900         33109.000      52.374
  11.8900         32537.000      51.381
  11.9900         32789.000      51.430
  12.0900         32630.000      51.643
  12.1900         32499.000      51.420
  12.2900         32745.000      52.697
  12.3900         32280.000      51.759
  12.4900         32384.000      53.000
  12.5900         32402.000      52.096
  12.6900         32471.000      51.933
  12.7900         32353.000      52.383
  12.8900         32610.000      51.740
  12.9900         32467.000      52.000
  13.0900         32262.000      52.450
  13.1900         32523.000      53.245
  13.2900         32609.000      51.817
  13.3900         32155.000      51.865
  13.4900         32667.000      52.288
  13.5900         32350.000      52.058
  13.6900         32326.000      51.913
  13.7900         32564.000      52.316
  13.8900         32454.000      52.612
  13.9900         32507.000      51.400
  14.0900         32316.000      51.875
  14.1900         32390.000      52.154
  14.2900         32354.000      52.326
  14.3900         32323.000      52.421
  14.4900         32559.000      51.846
  14.5900         32619.000      52.106
  14.6900         32188.000      51.323
  14.7900         32543.000      51.653
  14.8900         32205.000      51.990
  14.9900         32373.000      52.716
  15.0900         32702.000      51.913
  15.1900         33295.000      51.990
  15.2900         33641.000      53.123
  15.3900         34378.000      52.460
  15.4900         34595.000      53.339
  15.5900         33916.000      52.972
  15.6900         33171.000      53.141
  15.7900         33020.000      51.730
  15.8900         32433.000      52.421
  15.9900         32387.000      51.000
  16.0900         32566.000      51.836
  16.1900         32611.000      51.186
  16.2900         32847.000      51.010
  16.3900         32626.000      51.517
  16.4900         32405.000      52.839
  16.5900         32592.000      51.913
  16.6900         32320.000      52.393
  16.7900         32470.000      52.125
  16.8900         32761.000      53.647
  16.9900         32453.000      51.942
  17.0900         32777.000      53.000
  17.1900         32794.000      52.839
  17.2900         32685.000      52.297
  17.3900         32619.000      51.711
  17.4900         32737.000      51.575
  17.5900         32671.000      52.077
  17.6900         33134.000      52.545
  17.7900         33629.000      52.316
  17.8900         33781.000      52.754
  17.9900         33896.000      52.868
  18.0900         33352.000      52.849
  18.1900         32725.000      52.669
  18.2900         32760.000      52.211
  18.3900         32846.000      52.125
  18.4900         32718.000      52.211
  18.5900         32741.000      51.391
  18.6900         32992.000      51.942
  18.7900         32677.000      52.115
  18.8900         32394.000      51.430
  18.9900         32735.000      52.240
  19.0900         32672.000      52.602
  19.1900         32803.000      52.669
  19.2900         32526.000      52.498
  19.3900         32691.000      52.669
  19.4900         32883.000      52.688
  19.5900         32724.000      52.326
  19.6900         32870.000      52.574
  19.7900         33219.000      52.517
  19.8900         33122.000      52.991
  19.9900         32856.000      52.221
  20.0900         32517.000      52.067
  20.1900         32875.000      51.342
  20.2900         32842.000      52.316
  20.3900         32580.000      51.817
  20.4900         32738.000      52.355
  20.5900         32975.000      52.048
  20.6900         33031.000      52.621
  20.7900         33058.000      52.991
  20.8900         33381.000      52.450
  20.9900         32964.000      52.583
  21.0900         32857.000      51.913
  21.1900         33098.000      51.498
  21.2900         33115.000      51.420
  21.3900         33356.000      53.066
  21.4900         33180.000      53.047
  21.5900         32878.000      52.726
  21.6900         32918.000      51.701
  21.7900         33241.000      52.249
  21.8900         32933.000      52.421
  21.9900         33194.000      52.488
  22.0900         32990.000      51.614
  22.1900         32811.000      51.933
  22.2900         32966.000      52.839
  22.3900         33125.000      52.326
  22.4900         32891.000      52.192
  22.5900         32950.000      51.614
  22.6900         32951.000      52.735
  22.7900         33075.000      52.173
  22.8900         33146.000      51.381
  22.9900         32881.000      52.240
  23.0900         33375.000      53.019
  23.1900         33352.000      52.269
  23.2900         33306.000      52.526
  23.3900         33396.000      52.612
  23.4900         33558.000      53.731
  23.5900         33254.000      52.450
  23.6900         33191.000      52.669
  23.7900         33354.000      53.057
  23.8900         33372.000      52.896
  23.9900         33835.000      52.374
  24.0900         33328.000      53.310
  24.1900         33290.000      52.981
  24.2900         33024.000      52.421
  24.3900         33315.000      53.516
  24.4900         33120.000      52.431
  24.5900         33110.000      52.221
  24.6900         33506.000      52.981
  24.7900         33345.000      52.688
  24.8900         33355.000      53.217
  24.9900         33123.000      52.754
  25.0900         33636.000      53.198
  25.1900         33551.000      52.335
  25.2900         33460.000      52.773
  25.3900         34049.000      53.104
  25.4900         33892.000      53.610
  25.5900         33807.000      53.160
  25.6900         33487.000      52.868
  25.7900         33583.000      52.307
  25.8900         33602.000      53.217
  25.9900         33448.000      51.990
  26.0900         33687.000      52.640
  26.1900         33590.000      52.202
  26.2900         33411.000      53.572
  26.3900         33603.000      52.640
  26.4900         33371.000      53.385
  26.5900         33786.000      53.339
  26.6900         33587.000      53.675
  26.7900         33821.000      53.638
  26.8900         33757.000      53.712
  26.9900         33802.000      53.507
  27.0900         33808.000      52.631
  27.1900         33768.000      53.395
  27.2900         33980.000      53.907
  27.3900         33826.000      53.666
  27.4900         33654.000      52.981
  27.5900         33711.000      52.991
  27.6900         33749.000      53.703
  27.7900         34067.000      52.383
  27.8900         33744.000      52.688
  27.9900         33984.000      53.226
  28.0900         33992.000      52.811
  28.1900         33881.000      53.554
  28.2900         33821.000      52.896
  28.3900         34482.000      53.684
  28.4900         34106.000      52.393
  28.5900         34002.000      53.104
  28.6900         34277.000      53.263
  28.7900         34280.000      53.870
  28.8900         33930.000      53.085
  28.9900         34189.000      53.310
  29.0900         34213.000      54.028
  29.1900         34317.000      53.759
  29.2900         34301.000      53.348
  29.3900         34039.000      53.628
  29.4900         34338.000      54.148
  29.5900         34277.000      52.849
  29.6900         34718.000      53.638
  29.7900         34835.000      54.342
  29.8900         36108.000      54.498
  29.9900         36285.000      55.245
  30.0900         35726.000      54.918
  30.1900         35723.000      53.954
  30.2900         35369.000      54.415
  30.3900         35376.000      54.314
  30.4900         36042.000      53.749
  30.5900         36678.000      54.727
  30.6900         37333.000      55.884
  30.7900         38909.000      56.312
  30.8900         42302.000      59.523
  30.9900         50212.000      65.054
  31.0900         64322.000      73.335
  31.1900         85343.000      84.095
  31.2900        102289.000      92.195
  31.3900        102275.000      92.434
  31.4900         86749.000      84.244
  31.5900         65703.000      73.946
  31.6900         50371.000      65.207
  31.7900         42021.000      59.127
  31.8900         38576.000      56.719
  31.9900         36837.000      54.982
  32.0900         36306.000      54.608
  32.1900         35903.000      54.406
  32.2900         35580.000      53.292
  32.3900         35164.000      53.385
  32.4900         35496.000      54.571
  32.5900         34894.000      53.217
  32.6900         34659.000      52.792
  32.7900         34930.000      54.489
  32.8900         34906.000      54.028
  32.9900         34892.000      53.404
  33.0900         34915.000      53.273
  33.1900         34735.000      54.037
  33.2900         34441.000      53.198
  33.3900         34676.000      53.423
  33.4900         34277.000      52.991
  33.5900         34582.000      53.861
  33.6900         34220.000      53.141
  33.7900         34315.000      52.383
  33.8900         34579.000      54.240
  33.9900         34621.000      52.745
  34.0900         34863.000      54.093
  34.1900         35035.000      54.470
  34.2900         35402.000      54.314
  34.3900         34755.000      52.991
  34.4900         34756.000      53.217
  34.5900         34850.000      53.712
  34.6900         34857.000      53.731
  34.7900         34624.000      53.684
  34.8900         34443.000      53.619
  34.9900         34593.000      54.259
  35.0900         34819.000      53.000
  35.1900         34854.000      53.226
  35.2900         34427.000      53.759
  35.3900         34816.000      54.406
  35.4900         35260.000      54.470
  35.5900         35179.000      55.435
  35.6900         35777.000      54.653
  35.7900         36872.000      55.344
  35.8900         38429.000      54.800
  35.9900         42295.000      58.890
  36.0900         48626.000      62.944
  36.1900         57782.000      68.964
  36.2900         66945.000      74.907
  36.3900         70490.000      76.479
  36.4900         65169.000      72.822
  36.5900         55746.000      67.875
  36.6900         46887.000      62.714
  36.7900         40636.000      57.628
  36.8900         37413.000      55.381
  36.9900         36639.000      54.672
  37.0900         36090.000      54.836
  37.1900         35254.000      54.955
  37.2900         35038.000      53.235
  37.3900         34736.000      53.404
  37.4900         34657.000      53.582
  37.5900         34790.000      52.735
  37.6900         34265.000      53.113
  37.7900         34150.000      53.301
  37.8900         34247.000      53.009
  37.9900         34095.000      52.735
  38.0900         34337.000      53.535
  38.1900         34255.000      52.868
  38.2900         33928.000      53.000
  38.3900         33929.000      53.301
  38.4900         34022.000      53.282
  38.5900         33965.000      52.507
  38.6900         34013.000      53.038
  38.7900         33959.000      52.269
  38.8900         33661.000      53.544
  38.9900         33991.000      53.329
  39.0900         33803.000      52.669
  39.1900         33731.000      51.990
  39.2900         33776.000      53.432
  39.3900         33911.000      52.820
  39.4900         34132.000      53.329
  39.5900         33969.000      53.170
  39.6900         34742.000      53.000
  39.7900         34807.000      53.423
  39.8900         34433.000      53.367
  39.9900         34185.000      53.824
  40.0900         33797.000      51.759
  40.1900         34039.000      53.207
  40.2900         34014.000      53.085
  40.3900         34247.000      54.166
  40.4900         34038.000      52.934
  40.5900         33717.000      53.038
  40.6900         33490.000      52.421
  40.7900         34112.000      53.610
  40.8900         34136.000      53.563
  40.9900         33829.000      53.367
  41.0900         33850.000      52.934
  41.1900         33724.000      52.249
  41.2900         33727.000      52.802
  41.3900         33495.000      51.942
  41.4900         33477.000      53.151
  41.5900         33651.000      53.160
  41.6900         33441.000      52.896
  41.7900         33537.000      52.640
  41.8900         33491.000      52.764
  41.9900         33416.000      52.316
  42.0900         33802.000      53.628
  42.1900         34001.000      53.075
  42.2900         33649.000      53.094
  42.3900         33963.000      53.563
  42.4900         33624.000      53.395
  42.5900         33767.000      52.650
  42.6900         33653.000      52.583
  42.7900         33546.000      51.633
  42.8900         33328.000      52.221
  42.9900         33251.000      52.086
  43.0900         33531.000      53.805
  43.1900         33736.000      52.659
  43.2900         33402.000      52.574
  43.3900         33476.000      53.320
  43.4900         33422.000      52.764
  43.5900         33508.000      52.697
  43.6900         33607.000      52.783
  43.7900         33750.000      51.933
  43.8900         33793.000      52.678
  43.9900         33555.000      53.207
  44.0900         33683.000      52.764
  44.1900         33613.000      52.621
  44.2900         33661.000      52.517
  44.3900         33972.000      53.814
  44.4900         33774.000      53.833
  44.5900         33625.000      52.402
  44.6900         33544.000      52.115
  44.7900         33529.000      52.077
  44.8900         33490.000      52.249
  44.9900         33843.000      52.868
  45.0900         33403.000      52.307
  45.1900         33843.000      52.820
  45.2900         33550.000      51.565
  45.3900         33570.000      52.383
  45.4900         33095.000      52.240
  45.5900         33646.000      52.943
  45.6900         33539.000      52.991
  45.7900         33523.000      51.990
  45.8900         33475.000      51.942
  45.9900         33485.000      52.316
  46.0900         33427.000      52.316
  46.1900         33728.000      52.421
  46.2900         33748.000      51.778
  46.3900         33490.000      53.009
  46.4900         33898.000      52.650
  46.5900         33785.000      52.202
  46.6900         33506.000      52.849
  46.7900         33387.000      52.536
  46.8900         33540.000      52.450
  46.9900         33410.000      53.066
  47.0900         33662.000      52.307
  47.1900         33822.000      53.310
  47.2900         33711.000      52.144
  47.3900         33638.000      53.339
  47.4900         33737.000      52.211
  47.5900         34385.000      53.470
  47.6900         35770.000      54.203
  47.7900         36413.000      54.562
  47.8900         37032.000      55.489
  47.9900         35893.000      54.019
  48.0900         34707.000      52.659
  48.1900         33943.000      52.593
  48.2900         33835.000      53.047
  48.3900         33585.000      52.393
  48.4900         33756.000      52.868
  48.5900         33603.000      51.769
  48.6900         33347.000      52.125
  48.7900         33999.000      52.906
  48.8900         33553.000      52.697
  48.9900         33845.000      52.764
  49.0900         33437.000      51.865
  49.1900         33716.000      52.650
  49.2900         33937.000      53.610
  49.3900         33685.000      52.887
  49.4900         33836.000      53.320
  49.5900         33871.000      52.924
  49.6900         33602.000      52.716
  49.7900         33832.000      52.374
  49.8900         33656.000      51.990
  49.9900         33797.000      52.393
  50.0900         33590.000      51.875
  50.1900         33763.000      52.650
  50.2900         33914.000      52.498
  50.3900         33650.000      52.450
  50.4900         34239.000      53.460
  50.5900         33883.000      52.934
  50.6900         33446.000      52.631
  50.7900         33743.000      53.301
  50.8900         33587.000      52.221
  50.9900         33813.000      53.684
  51.0900         33951.000      53.057
  51.1900         33619.000      52.440
  51.2900         34161.000      52.726
  51.3900         33927.000      52.421
  51.4900         34137.000      53.647
  51.5900         33959.000      53.085
  51.6900         34397.000      53.104
  51.7900         34709.000      53.498
  51.8900         35398.000      53.554
  51.9900         37147.000      55.489
  52.0900         39495.000      56.736
  52.1900         43616.000      59.958
  52.2900         48603.000      63.238
  52.3900         51243.000      65.138
  52.4900         50066.000      64.606
  52.5900         47126.000      62.984
  52.6900         42310.000      59.431
  52.7900         38305.000      56.560
  52.8900         35543.000      54.754
  52.9900         34682.000      54.672
  53.0900         34322.000      53.432
  53.1900         33726.000      52.697
  53.2900         34045.000      53.038
  53.3900         33851.000      53.563
  53.4900         34055.000      53.385
  53.5900         34033.000      52.355
  53.6900         33699.000      52.688
  53.7900         33761.000      52.697
  53.8900         33309.000      52.249
  53.9900         33649.000      53.066
  54.0900         33668.000      53.151
  54.1900         33606.000      52.773
  54.2900         33868.000      51.856
  54.3900         33687.000      53.151
  54.4900         33993.000      53.796
  54.5900         33893.000      52.202
  54.6900         33769.000      52.887
  54.7900         33669.000      52.173
  54.8900         34078.000      52.259
  54.9900         34160.000      53.442
  55.0900         34232.000      53.301
  55.1900         33932.000      52.067
  55.2900         33711.000      53.198
  55.3900         34022.000      52.962
  55.4900         33645.000      52.134
  55.5900         33978.000      52.364
  55.6900         34230.000      53.273
  55.7900         33911.000      52.479
  55.8900         33958.000      52.383
  55.9900         33674.000      53.141
  56.0900         33987.000      52.536
  56.1900         33674.000      52.726
  56.2900         33755.000      52.896
  56.3900         34184.000      53.226
  56.4900         33751.000      52.868
  56.5900         33855.000      52.707
  56.6900         33772.000      52.621
  56.7900         33616.000      52.278
  56.8900         33800.000      52.943
  56.9900         33842.000      52.820
  57.0900         33513.000      52.450
  57.1900         34078.000      53.000
  57.2900         33581.000      52.536
  57.3900         33719.000      52.820
  57.4900         33419.000      52.202
  57.5900         33632.000      52.764
  57.6900         33568.000      51.865
  57.7900         33691.000      53.009
  57.8900         33683.000      52.316
  57.9900         33948.000      52.934
  58.0900         33599.000      52.868
  58.1900         33675.000      52.307
  58.2900         33806.000      52.345
  58.3900         33773.000      52.134
  58.4900         33518.000      52.010
  58.5900         33842.000      52.335
  58.6900         33608.000      52.077
  58.7900         33692.000      52.669
  58.8900         33721.000      52.991
  58.9900         33783.000      52.820
  59.0900         33830.000      54.000
  59.1900         33741.000      53.207
  59.2900         33755.000      52.450
  59.3900         33734.000      52.688
  59.4900         34228.000      52.972
  59.5900         34145.000      52.545
  59.6900         34152.000      53.833
  59.7900         34099.000      52.640
  59.8900         34193.000      53.460
  59.9900         33889.000      53.226
  60.0900         33992.000      52.564
  60.1900         34092.000      54.213
  60.2900         33957.000      53.047
  60.3900         34066.000      52.564
  60.4900         34201.000      53.348
  60.5900         34128.000      53.647
  60.6900         34106.000      52.163
  60.7900         34297.000      53.141
  60.8900         34583.000      53.852
  60.9900         34246.000      53.526
  61.0900         34438.000      53.712
  61.1900         34591.000      52.972
  61.2900         34526.000      53.479
  61.3900         35546.000      54.037
  61.4900         35722.000      55.073
  61.5900         36284.000      54.991
  61.6900         37832.000      56.178
  61.7900         40165.000      57.819
  61.8900         43111.000      59.883
  61.9900         46371.000      61.984
  62.0900         50928.000      63.969
  62.1900         55491.000      67.149
  62.2900         59025.000      70.178
  62.3900         60141.000      70.605
  62.4900         58469.000      69.836
  62.5900         55091.000      67.402
  62.6900         50880.000      64.242
  62.7900         45608.000      62.161
  62.8900         41142.000      58.352
  62.9900         39050.000      55.937
  63.0900         36692.000      54.945
  63.1900         36171.000      54.827
  63.2900         35384.000      54.065
  63.3900         34986.000      53.591
  63.4900         34737.000      53.310
  63.5900         34811.000      53.292
  63.6900         34684.000      53.824
  63.7900         34876.000      53.009
  63.8900         34769.000      53.432
  63.9900         35124.000      53.740
  64.0900         35609.000      54.525
  64.1900         35443.000      53.245
  64.2900         36249.000      54.516
  64.3900         36992.000      56.187
  64.4900         37792.000      55.884
  64.5900         40195.000      58.523
  64.6900         44246.000      61.074
  64.7900         52181.000      66.053
  64.8900         63699.000      72.657
  64.9900         78269.000      79.360
  65.0900         95249.000      88.369
  65.1900        115354.000      98.514
  65.2900        135372.000     105.627
  65.3900        150204.000     111.364
  65.4900        152795.000     112.156
  65.5900        146144.000     111.351
  65.6900        134455.000     105.589
  65.7900        115950.000      98.448
  65.8900         94674.000      88.645
  65.9900         74123.000      79.114
  66.0900         58078.000      69.455
  66.1900         47837.000      62.833
  66.2900         42948.000      58.830
  66.3900         39136.000      55.848
  66.4900         37423.000      55.973
  66.5900         35813.000      54.479
  66.6900         35650.000      54.800
  66.7900         35305.000      53.824
  66.8900         34948.000      54.690
  66.9900         34728.000      53.488
  67.0900         34542.000      52.460
  67.1900         34212.000      52.602
  67.2900         33986.000      53.066
  67.3900         33982.000      52.269
  67.4900         33941.000      53.047
  67.5900         34311.000      53.282
  67.6900         34776.000      53.842
  67.7900         34581.000      53.245
  67.8900         34728.000      53.703
  67.9900         34195.000      52.773
  68.0900         33839.000      52.602
  68.1900         33661.000      52.517
  68.2900         33209.000      52.564
  68.3900         33169.000      51.856
  68.4900         32972.000      52.297
  68.5900         32963.000      51.662
  68.6900         32842.000      52.115
  68.7900         33435.000      53.207
  68.8900         32919.000      52.431
  68.9900         32721.000      52.211
  69.0900         32649.000      52.192
  69.1900         32501.000      51.672
  69.2900         32652.000      51.517
  69.3900         32552.000      51.332
  69.4900         32941.000      52.335
  69.5900         32768.000      52.335
  69.6900         32810.000      52.326
  69.7900         32990.000      52.326
  69.8900         32475.000      51.933
  69.9900         32386.000      50.882
  70.0900         32655.000      51.798
  70.1900         32380.000      51.323
  70.2900         32611.000      52.934
  70.3900         32592.000      52.726
  70.4900         32603.000      52.583
  70.5900         32382.000      51.827
  70.6900         32531.000      51.245
  70.7900         32356.000      52.106
  70.8900         32456.000      51.778
  70.9900         32485.000      51.400
  71.0900         32432.000      51.118
  71.1900         32614.000      51.923
  71.2900         33110.000      52.802
  71.3900         33352.000      53.348
  71.4900         33807.000      52.383
  71.5900         34243.000      52.745
  71.6900         34833.000      53.582
  71.7900         35131.000      54.781
  71.8900         35518.000      54.056
  71.9900         35865.000      55.272
  72.0900         36470.000      55.263
  72.1900         36401.000      54.443
  72.2900         36395.000      54.498
  72.3900         35807.000      54.991
  72.4900         35821.000      54.617
  72.5900         35486.000      54.580
  72.6900         34883.000      53.226
  72.7900         34514.000      53.694
  72.8900         33764.000      53.000
  72.9900         33245.000      52.269
  73.0900         33184.000      51.952
  73.1900         32934.000      51.884
  73.2900         33124.000      52.316
  73.3900         33063.000      52.221
  73.4900         32943.000      53.263
  73.5900         33044.000      51.827
  73.6900         33349.000      52.650
  73.7900         33592.000      52.086
  73.8900         33242.000      51.913
  73.9900         32895.000      51.971
  74.0900         32650.000      52.431
  74.1900         32382.000      52.934
  74.2900         32354.000      51.118
  74.3900         32396.000      50.705
  74.4900         32131.000      52.678
  74.5900         32080.000      51.498
  74.6900         32017.000      50.990
  74.7900         32109.000      51.565
  74.8900         32345.000      51.720
  74.9900         32660.000      51.624
  75.0900         32374.000      52.364
  75.1900         32348.000      51.196
  75.2900         32346.000      51.000
  75.3900         32914.000      52.574
  75.4900         32695.000      52.602
  75.5900         32947.000      52.096
  75.6900         33134.000      53.123
  75.7900         33495.000      52.583
  75.8900         34017.000      53.198
  75.9900         34422.000      52.564
  76.0900         35586.000      53.600
  76.1900         37187.000      55.714
  76.2900         40588.000      58.086
  76.3900         45334.000      60.984
  76.4900         52806.000      66.873
  76.5900         61910.000      72.835
  76.6900         73224.000      77.795
  76.7900         85040.000      84.048
  76.8900         98095.000      90.989
  76.9900        114276.000      97.852
  77.0900        127871.000     103.889
  77.1900        137729.000     107.023
  77.2900        141130.000     108.023
  77.3900        137595.000     107.382
  77.4900        130004.000     103.460
  77.5900        118293.000      99.955
  77.6900        104454.000      93.188
  77.7900         90404.000      86.475
  77.8900         74563.000      77.878
  77.9900         61580.000      72.146
  78.0900         51231.000      65.475
  78.1900         44495.000      60.836
  78.2900         41004.000      57.793
  78.3900         37628.000      55.785
  78.4900         35911.000      55.236
  78.5900         34617.000      54.360
  78.6900         33923.000      52.612
  78.7900         33733.000      52.249
  78.8900         33286.000      52.820
  78.9900         33232.000      52.858
  79.0900         33121.000      52.355
  79.1900         32762.000      53.009
  79.2900         33068.000      52.269
  79.3900         32739.000      52.335
  79.4900         32620.000      52.038
  79.5900         32862.000      51.807
  79.6900         32347.000      52.249
  79.7900         32335.000      51.604
  79.8900         32441.000      52.393
  79.9900         32010.000      51.923
  80.0900         31588.000      52.038
  80.1900         31805.000      51.952
  80.2900         32084.000      52.173
  80.3900         31500.000      50.931
  80.4900         31444.000      50.754
  80.5900         31774.000      50.744
  80.6900         31402.000      51.439
  80.7900         31179.000      50.616
  80.8900         31469.000      50.685
  80.9900         31112.000      49.769
  81.0900         31327.000      51.118
  81.1900         31398.000      51.069
  81.2900         31505.000      51.196
  81.3900         30979.000      51.459
  81.4900         31248.000      50.695
  81.5900         31464.000      51.205
  81.6900         31024.000      50.120
  81.7900         31372.000      50.040
  81.8900         31386.000      50.656
  81.9900         31364.000      51.478
  82.0900         31019.000      50.951
  82.1900         30921.000      50.744
  82.2900         31160.000      50.468
  82.3900         30916.000      50.458
  82.4900         31187.000      50.833
  82.5900         31161.000      51.205
  82.6900         31108.000      50.675
  82.7900         31224.000      50.349
  82.8900         31202.000      51.342
  82.9900         31355.000      51.410
  83.0900         31214.000      51.205
  83.1900         31241.000      50.349
  83.2900         31221.000      50.863
  83.3900         30850.000      51.517
  83.4900         30751.000      49.920
  83.5900         30740.000      50.764
  83.6900         31244.000      50.547
  83.7900         31170.000      51.400
  83.8900         31263.000      50.329
  83.9900         31268.000      50.596
  84.0900         31463.000      51.166
  84.1900         31195.000      50.100
  84.2900         31216.000      50.695
  84.3900         31202.000      50.931
  84.4900         31664.000      50.170
  84.5900         32089.000      52.621
  84.6900         32316.000      51.157
  84.7900         33311.000      52.612
  84.8900         34211.000      52.602
  84.9900         35016.000      53.731
  85.0900         36345.000      55.236
  85.1900         37894.000      56.205
  85.2900         39148.000      56.630
  85.3900         40566.000      58.558
  85.4900         41823.000      59.085
  85.5900         43305.000      60.448
  85.6900         43936.000      59.791
  85.7900         43908.000      59.967
  85.8900         43790.000      60.366
  85.9900         42853.000      59.203
  86.0900         41867.000      59.237
  86.1900         40031.000      57.454
  86.2900         38796.000      56.338
  86.3900         37378.000      55.937
  86.4900         35451.000      53.656
  86.5900         34056.000      53.376
  86.6900         33234.000      52.479
  86.7900         32594.000      52.307
  86.8900         31857.000      51.740
  86.9900         31530.000      52.000
  87.0900         31651.000      51.498
  87.1900         31506.000      51.371
  87.2900         31359.000      51.059
  87.3900         31506.000      51.205
  87.4900         31726.000      51.595
  87.5900         31840.000      52.115
  87.6900         32570.000      51.186
  87.7900         32981.000      51.478
  87.8900         33341.000      52.792
  87.9900         34095.000      52.288
  88.0900         34535.000      53.787
  88.1900         35404.000      54.046
  88.2900         36572.000      55.955
  88.3900         37399.000      56.000
  88.4900         38195.000      56.507
  88.5900         38068.000      55.714
  88.6900         38345.000      56.258
  88.7900         37718.000      56.356
  88.8900         37449.000      56.125
  88.9900         36453.000      54.452
  89.0900         35563.000      54.461
  89.1900         34413.000      52.934
  89.2900         33559.000      52.707
  89.3900         32947.000      52.029
  89.4900         32191.000      51.884
  89.5900         31533.000      50.951
  89.6900         31644.000      51.507
  89.7900         30901.000      50.725
  89.8900         31174.000      51.720
  89.9900         31147.000      50.418
  90.0900         31267.000      50.804
  90.1900         30846.000      50.329
  90.2900         30837.000      49.970
  90.3900         30977.000      50.289
  90.4900         30993.000      51.069
  90.5900         31202.000      50.567
  90.6900         31024.000      51.157
  90.7900         31233.000      50.418
  90.8900         31321.000      51.468
  90.9900         30979.000      51.633
  91.0900         31256.000      50.823
  91.1900         30797.000      50.882
  91.2900         31066.000      50.010
  91.3900         30970.000      50.110
  91.4900         30866.000      51.439
  91.5900         30774.000      51.196
  91.6900         30653.000      51.098
  91.7900         30671.000      50.606
  91.8900         30758.000      51.039
  91.9900         30767.000      50.388
  92.0900         30435.000      49.234
  92.1900         30437.000      50.656
  92.2900         30269.000      49.629
  92.3900         30366.000      50.299
  92.4900         30302.000      50.160
  92.5900         30681.000      50.190
  92.6900         30327.000      50.200
  92.7900         30530.000      49.578
  92.8900         30333.000      49.729
  92.9900         30231.000      50.249
  93.0900         30820.000      50.220
  93.1900         30300.000      49.769
  93.2900         30437.000      50.941
  93.3900         30449.000      50.537
  93.4900         30124.000      49.457
  93.5900         30448.000      50.190
  93.6900         30800.000      50.239
  93.7900         30457.000      50.090
  93.8900         30342.000      50.587
  93.9900         30324.000      50.070
  94.0900         30327.000      50.010
  94.1900         30499.000      49.649
  94.2900         30388.000      50.616
  94.3900         30284.000      50.279
  94.4900         30398.000      50.020
  94.5900         30890.000      50.010
  94.6900         30331.000      50.675
  94.7900         30384.000      50.229
  94.8900         30453.000      50.000
  94.9900         30365.000      50.130
  95.0900         30312.000      50.725
  95.1900         30361.000      50.000
  95.2900         30800.000      50.616
  95.3900         30541.000      50.804
  95.4900         30509.000      50.050
  95.5900         30651.000      50.764
  95.6900         30419.000      50.339
  95.7900         30383.000      50.596
  95.8900         30444.000      50.794
  95.9900         30693.000      50.070
  96.0900         30923.000      50.428
  96.1900         30960.000      50.922
  96.2900         31021.000      50.735
  96.3900         31328.000      51.527
  96.4900         31313.000      50.527
  96.5900         30859.000      50.517
  96.6900         31144.000      50.587
  96.7900         30889.000      50.418
  96.8900         30887.000      50.369
  96.9900         30381.000      50.813
  97.0900         30536.000      50.774
  97.1900         30197.000      50.210
  97.2900         30409.000      50.527
  97.3900         30219.000      49.639
  97.4900         30403.000      50.428
  97.5900         30383.000      49.820
  97.6900         30189.000      50.020
  97.7900         30156.000      49.890
  97.8900         30385.000      49.437
  97.9900         30090.000      49.193
  98.0900         30414.000      50.060
  98.1900         30364.000      50.428
  98.2900         30547.000      50.349
  98.3900         30306.000      50.577
  98.4900         30407.000      49.679
  98.5900         30796.000      50.931
  98.6900         30431.000      50.438
  98.7900         30869.000      50.882
  98.8900         30894.000      50.980
  98.9900         30847.000      50.180
  99.0900         31122.000      51.798
  99.1900         31236.000      50.754
  99.2900         31575.000      51.430
  99.3900         32062.000      50.912
  99.4900         32336.000      50.961
  99.5900         32975.000      52.058
  99.6900         33458.000      53.367
  99.7900         33466.000      52.096
  99.8900         33545.000      52.536
  99.9900         33514.000      53.235
 100.0900         33404.000      53.423
 100.1900         32907.000      51.884
 100.2900         32667.000      52.421
 100.3900         32406.000      51.604
 100.4900         31896.000      51.759
 100.5900         31565.000      50.872
 100.6900         31228.000      50.498
 100.7900         31050.000      50.980
 100.8900         30672.000      50.813
 100.9900         30524.000      50.547
 101.0900         30300.000      49.950
 101.1900         30313.000      50.537
 101.2900         30162.000      49.910
 101.3900         30391.000      50.636
 101.4900         30368.000      50.418
 101.5900         30236.000      50.259
 101.6900         30636.000      50.438
 101.7900         30482.000      50.150
 101.8900         30681.000      50.735
 101.9900         30653.000      49.719
 102.0900         30422.000      50.804
 102.1900         30361.000      49.709
 102.2900         30677.000      51.010
 102.3900         30658.000      50.754
 102.4900         30379.000      49.759
 102.5900         30494.000      50.140
 102.6900         30344.000      50.249
 102.7900         30365.000      49.990
 102.8900         30258.000      50.646
 102.9900         30516.000      50.705
 103.0900         30237.000      49.457
 103.1900         30328.000      50.418
 103.2900         30306.000      49.679
 103.3900         30232.000      50.567
 103.4900         30287.000      49.870
 103.5900         30119.000      49.508
 103.6900         30481.000      49.900
 103.7900         30545.000      50.170
 103.8900         30345.000      50.130
 103.9900         30087.000      49.910
 104.0900         29839.000      49.629
 104.1900         30269.000      49.910
 104.2900         30223.000      50.833
 104.3900         30765.000      50.379
 104.4900         30521.000      50.398
 104.5900         30080.000      49.598
 104.6900         30342.000      48.693
 104.7900         29974.000      49.376
 104.8900         30453.000      51.293
 104.9900         30552.000      50.774
 105.0900         30245.000      49.729
 105.1900         30716.000      50.398
 105.2900         30417.000      49.810
 105.3900         30351.000      49.950
 105.4900         30224.000      50.468
 105.5900         30541.000      49.840
 105.6900         30229.000      50.289
 105.7900         30517.000      50.210
 105.8900         31050.000      50.498
 105.9900         31034.000      50.537
 106.0900         30831.000      51.000
 106.1900         31188.000      50.299
 106.2900         31097.000      51.323
 106.3900         31545.000      51.235
 106.4900         32186.000      51.361
 106.5900         32729.000      52.288
 106.6900         33478.000      52.735
 106.7900         34666.000      54.681
 106.8900         36145.000      55.091
 106.9900         37797.000      56.427
 107.0900         39564.000      56.833
 107.1900         42266.000      58.600
 107.2900         44226.000      61.213
 107.3900         47133.000      61.644
 107.4900         49797.000      65.115
 107.5900         53201.000      67.757
 107.6900         56965.000      68.804
 107.7900         59945.000      70.753
 107.8900         63022.000      71.805
 107.9900         66636.000      75.166
 108.0900         69433.000      75.485
 108.1900         71222.000      77.434
 108.2900         73192.000      77.814
 108.3900         73992.000      78.422
 108.4900         73285.000      77.589
 108.5900         72767.000      78.166
 108.6900         72027.000      77.330
 108.7900         69914.000      76.309
 108.8900         66005.000      74.813
 108.9900         62770.000      72.780
 109.0900         59311.000      70.958
 109.1900         56167.000      68.213
 109.2900         53240.000      67.015
 109.3900         50257.000      64.428
 109.4900         47099.000      62.161
 109.5900         44869.000      60.778
 109.6900         41740.000      59.741
 109.7900         39360.000      56.604
 109.8900         36935.000      55.480
 109.9900         35852.000      54.854
 110.0900         34471.000      53.395
 110.1900         33243.000      53.460
 110.2900         33016.000      52.440
 110.3900         32104.000      52.048
 110.4900         31458.000      51.157
 110.5900         31301.000      50.912
 110.6900         31169.000      51.449
 110.7900         30793.000      50.080
 110.8900         30294.000      50.040
 110.9900         30347.000      49.437
 111.0900         30482.000      50.507
 111.1900         30289.000      50.309
 111.2900         30085.000      49.102
 111.3900         30278.000      50.249
 111.4900         30145.000      50.200
 111.5900         30061.000      49.336
 111.6900         30324.000      50.339
 111.7900         30367.000      50.892
 111.8900         30712.000      50.498
 111.9900         30530.000      49.578
 112.0900         30281.000      49.699
 112.1900         30199.000      49.920
 112.2900         30113.000      50.754
 112.3900         30020.000      49.860
 112.4900         30431.000      50.010
 112.5900         30345.000      50.418
 112.6900         30496.000      49.467
 112.7900         30636.000      49.810
 112.8900         30467.000      49.598
 112.9900         30691.000      50.666
 113.0900         30350.000      49.699
 113.1900         30365.000      50.418
 113.2900         30541.000      50.843
 113.3900         30570.000      51.323
 113.4900         30608.000      49.800
 113.5900         30967.000      49.629
 113.6900         30904.000      50.646
 113.7900         30784.000      49.920
 113.8900         30695.000      50.784
 113.9900         30695.000      49.940
 114.0900         30643.000      49.275
 114.1900         30766.000      49.010
 114.2900         30694.000      51.137
 114.3900         30427.000      50.110
 114.4900         30467.000      49.214
 114.5900         30208.000      50.180
 114.6900         30290.000      50.200
 114.7900         30169.000      50.120
 114.8900         29918.000      49.970
 114.9900         29750.000      49.790
 115.0900         29998.000      49.497
 115.1900         29579.000      49.699
 115.2900         30129.000      49.427
 115.3900         29725.000      48.939
 115.4900         29643.000      49.729
 115.5900         29779.000      50.040
 115.6900         29704.000      49.830
 115.7900         29820.000      49.224
 115.8900         29467.000      48.754
 115.9900         29443.000      50.478
 116.0900         29637.000      50.060
 116.1900         29467.000      49.082
 116.2900         29483.000      49.386
 116.3900         29408.000      49.568
 116.4900         29872.000      49.153
 116.5900         29575.000      49.487
 116.6900         29256.000      49.193
 116.7900         29488.000      50.229
 116.8900         29656.000      49.275
 116.9900         29637.000      50.319
 117.0900         29497.000      49.629
 117.1900         29757.000      48.806
 117.2900         29653.000      49.659
 117.3900         29656.000      49.406
 117.4900         29580.000      49.031
 117.5900         29404.000      48.847
 117.6900         29591.000      49.719
 117.7900         29242.000      49.020
 117.8900         29162.000      48.332
 117.9900         29435.000      48.949
 118.0900         29717.000      50.744
 118.1900         29474.000      49.487
 118.2900         29667.000      49.920
 118.3900         29434.000      49.629
 118.4900         29882.000      49.940
 118.5900         29746.000      49.295
 118.6900         29354.000      48.642
 118.7900         29266.000      50.130
 118.8900         29806.000      50.000
 118.9900         29590.000      48.969
 119.0900         29705.000      48.857
 119.1900         29664.000      49.163
 119.2900         29455.000      49.598
 119.3900         29595.000      48.528
 119.4900         29478.000      50.309
 119.5900         29697.000      49.629
 119.6900         29761.000      50.229
 119.7900         29571.000      48.816
 119.8900         29856.000      49.275
 119.9900         30003.000      50.892
 120.0900         29916.000      50.488
 120.1900         29729.000      50.190
 120.2900         29811.000      50.090
 120.3900         30093.000      49.800
 120.4900         30146.000      49.417
 120.5900         30482.000      50.735
 120.6900         30157.000      50.060
 120.7900         30573.000      50.010
 120.8900         30809.000      50.951
 120.9900         30802.000      49.729
 121.0900         30822.000      49.880
 121.1900         31767.000      50.882
 121.2900         32355.000      52.640
 121.3900         32854.000      51.342
 121.4900         33910.000      52.650
 121.5900         35356.000      54.351
 121.6900         36879.000      55.606
 121.7900         38358.000      55.893
 121.8900         41238.000      58.737
 121.9900         43300.000      59.908
 122.0900         46150.000      62.105
 122.1900         49716.000      64.312
 122.2900         52370.000      65.399
 122.3900         55452.000      68.527
 122.4900         59264.000      70.647
 122.5900         64126.000      73.430
 122.6900         68577.000      75.299
 122.7900         73279.000      77.292
 122.8900         78483.000      80.331
 122.9900         83201.000      83.439
 123.0900         88386.000      86.313
 123.1900         94193.000      87.994
 123.2900         99769.000      90.940
 123.3900        105288.000      93.059
 123.4900        110730.000      95.859
 123.5900        116201.000      98.944
 123.6900        121493.000     101.514
 123.7900        123699.000     102.240
 123.8900        126848.000     103.995
 123.9900        128603.000     104.062
 124.0900        129831.000     103.841
 124.1900        129096.000     104.790
 124.2900        128012.000     103.402
 124.3900        126699.000     103.334
 124.4900        123671.000     101.371
 124.5900        118881.000      99.071
 124.6900        113278.000      96.369
 124.7900        106513.000      94.837
 124.8900        100152.000      92.185
 124.9900         94760.000      88.397
 125.0900         89030.000      87.310
 125.1900         84799.000      84.392
 125.2900         80740.000      82.474
 125.3900         76461.000      80.839
 125.4900         71592.000      77.544
 125.5900         66522.000      74.303
 125.6900         61728.000      71.365
 125.7900         57061.000      68.169
 125.8900         52870.000      65.970
 125.9900         49019.000      62.960
 126.0900         45323.000      61.172
 126.1900         42959.000      59.279
 126.2900         40655.000      58.181
 126.3900         38563.000      56.125
 126.4900         37404.000      56.196
 126.5900         36140.000      55.552
 126.6900         35200.000      53.395
 126.7900         34455.000      53.814
 126.8900         33725.000      53.009
 126.9900         33059.000      52.488
 127.0900         32775.000      52.612
 127.1900         32271.000      51.157
 127.2900         31710.000      51.865
 127.3900         31377.000      51.614
 127.4900         30912.000      51.614
 127.5900         31164.000      50.774
 127.6900         30461.000      50.269
 127.7900         30125.000      49.366
 127.8900         30340.000      50.130
 127.9900         29574.000      49.447
 128.0900         29925.000      49.890
 128.1900         29455.000      49.102
 128.2900         29436.000      49.699
 128.3900         30105.000      49.588
 128.4900         29630.000      49.780
 128.5900             9.000       1.414
 128.6900             7.000       1.000
