XYDATA edurneorf Co3O4-quenched_500_100K 
INTER        1       1       0     0.100000
TEMP       99.7650      100.004      100.000
! d1b Date 13-Nov-11 Time 21:35:38 Run 129888 129877>129888
! d1b Date 13-Nov-11 Time 21:35:38 Run 129888 129877>129888
! Monitor/counts, Counting time/sec:  1.09358e+007 1.09358e+007
   0.7900             2.000       1.000
   0.8900             7.000       1.000
   0.9900          2056.000      13.038
   1.0900          1984.000      12.806
   1.1900          1938.000      11.832
   1.2900          1928.000      12.450
   1.3900          1978.000      13.000
   1.4900          1961.000      12.450
   1.5900          2002.000      13.229
   1.6900          2192.000      13.229
   1.7900          2586.000      14.629
   1.8900          4111.000      18.330
   1.9900          6905.000      23.643
   2.0900          8989.000      27.604
   2.1900         11232.000      31.607
   2.2900         14237.000      34.583
   2.3900         18145.000      40.200
   2.4900         22031.000      42.226
   2.5900         26046.000      46.206
   2.6900         29333.000      49.183
   2.7900         32293.000      52.326
   2.8900         35345.000      54.955
   2.9900         37725.000      55.714
   3.0900         40920.000      58.224
   3.1900         43663.000      60.787
   3.2900         44823.000      61.774
   3.3900         46070.000      61.919
   3.4900         45098.000      61.668
   3.5900         44935.000      62.016
   3.6900         44091.000      59.666
   3.7900         43285.000      60.679
   3.8900         42364.000      58.711
   3.9900         44100.000      60.440
   4.0900         43419.000      60.274
   4.1900         43347.000      60.424
   4.2900         43127.000      59.808
   4.3900         43760.000      61.025
   4.4900         44305.000      60.208
   4.5900         46085.000      61.660
   4.6900         47976.000      62.841
   4.7900         50391.000      65.452
   4.8900         52591.000      66.648
   4.9900         54586.000      67.298
   5.0900         56616.000      69.217
   5.1900         59016.000      71.302
   5.2900         60877.000      71.225
   5.3900         62540.000      72.062
   5.4900         65328.000      73.838
   5.5900         66519.000      75.485
   5.6900         68387.000      75.881
   5.7900         69518.000      76.407
   5.8900         71253.000      77.149
   5.9900         73480.000      79.164
   6.0900         74371.000      79.549
   6.1900         74647.000      79.750
   6.2900         74545.000      78.581
   6.3900         74429.000      79.032
   6.4900         74449.000      79.221
   6.5900         74095.000      79.095
   6.6900         73038.000      77.897
   6.7900         72592.000      78.409
   6.8900         72661.000      76.877
   6.9900         72049.000      77.872
   7.0900         71201.000      76.668
   7.1900         70325.000      75.862
   7.2900         69484.000      76.935
   7.3900         68758.000      76.059
   7.4900         68337.000      75.684
   7.5900         67923.000      75.591
   7.6900         66179.000      74.565
   7.7900         65952.000      73.743
   7.8900         65215.000      74.054
   7.9900         64072.000      72.856
   8.0900         62978.000      73.403
   8.1900         62532.000      72.069
   8.2900         61699.000      71.049
   8.3900         60931.000      70.894
   8.4900         60267.000      71.407
   8.5900         59389.000      69.843
   8.6900         58197.000      69.656
   8.7900         57190.000      69.145
   8.8900         56258.000      68.986
   8.9900         55597.000      68.286
   9.0900         54971.000      67.860
   9.1900         53518.000      66.985
   9.2900         53135.000      66.536
   9.3900         51922.000      66.332
   9.4900         51276.000      64.892
   9.5900         50475.000      64.661
   9.6900         49393.000      63.190
   9.7900         48920.000      63.773
   9.8900         47936.000      63.174
   9.9900         47011.000      62.346
  10.0900         46138.000      61.847
  10.1900         45185.000      60.490
  10.2900         44268.000      60.762
  10.3900         43701.000      60.967
  10.4900         43000.000      58.847
  10.5900         42545.000      59.254
  10.6900         42189.000      59.883
  10.7900         41914.000      59.380
  10.8900         40734.000      58.464
  10.9900         40976.000      57.671
  11.0900         40388.000      57.593
  11.1900         40355.000      57.507
  11.2900         40397.000      58.172
  11.3900         40348.000      56.877
  11.4900         40292.000      57.411
  11.5900         40258.000      58.275
  11.6900         40263.000      56.974
  11.7900         40118.000      57.645
  11.8900         40473.000      57.645
  11.9900         40110.000      57.131
  12.0900         40199.000      57.420
  12.1900         39945.000      56.956
  12.2900         40009.000      57.810
  12.3900         39985.000      57.749
  12.4900         39921.000      58.224
  12.5900         40038.000      57.236
  12.6900         40291.000      56.815
  12.7900         39797.000      57.193
  12.8900         39821.000      56.939
  12.9900         39756.000      57.385
  13.0900         40039.000      57.550
  13.1900         39853.000      58.318
  13.2900         39679.000      57.922
  13.3900         39583.000      57.289
  13.4900         39521.000      57.341
  13.5900         39419.000      56.515
  13.6900         39754.000      57.201
  13.7900         39534.000      57.236
  13.8900         39836.000      57.940
  13.9900         39617.000      57.000
  14.0900         39741.000      57.428
  14.1900         39770.000      56.903
  14.2900         39510.000      57.280
  14.3900         39444.000      57.053
  14.4900         39937.000      58.481
  14.5900         39425.000      56.947
  14.6900         39254.000      56.903
  14.7900         39526.000      57.619
  14.8900         39307.000      56.780
  14.9900         38924.000      56.675
  15.0900         39581.000      57.749
  15.1900         39457.000      56.427
  15.2900         39788.000      57.637
  15.3900         39763.000      56.921
  15.4900         39636.000      57.619
  15.5900         39835.000      57.836
  15.6900         39259.000      56.613
  15.7900         39160.000      56.524
  15.8900         39011.000      56.551
  15.9900         38754.000      57.009
  16.0900         38584.000      57.000
  16.1900         38938.000      56.462
  16.2900         39331.000      57.367
  16.3900         39050.000      57.271
  16.4900         39166.000      57.472
  16.5900         38789.000      56.267
  16.6900         38830.000      56.383
  16.7900         38843.000      56.675
  16.8900         38902.000      57.585
  16.9900         38322.000      56.107
  17.0900         38751.000      56.639
  17.1900         39307.000      57.645
  17.2900         39258.000      57.219
  17.3900         38426.000      56.143
  17.4900         38936.000      57.044
  17.5900         39056.000      56.009
  17.6900         38819.000      56.462
  17.7900         39006.000      56.807
  17.8900         39052.000      56.356
  17.9900         38923.000      57.446
  18.0900         39095.000      57.428
  18.1900         38877.000      56.745
  18.2900         38585.000      56.683
  18.3900         38537.000      55.911
  18.4900         38932.000      57.123
  18.5900         38645.000      56.956
  18.6900         38873.000      56.701
  18.7900         38691.000      56.877
  18.8900         38718.000      56.586
  18.9900         39027.000      56.241
  19.0900         39145.000      56.886
  19.1900         38743.000      56.789
  19.2900         39002.000      56.418
  19.3900         38949.000      56.489
  19.4900         39024.000      56.347
  19.5900         39145.000      56.258
  19.6900         38952.000      56.338
  19.7900         39053.000      56.427
  19.8900         38899.000      56.551
  19.9900         39077.000      56.771
  20.0900         38948.000      56.789
  20.1900         39035.000      56.454
  20.2900         39257.000      56.877
  20.3900         39354.000      56.991
  20.4900         39363.000      57.236
  20.5900         39314.000      57.131
  20.6900         39324.000      57.619
  20.7900         39708.000      56.859
  20.8900         39489.000      56.657
  20.9900         39003.000      56.356
  21.0900         39115.000      56.639
  21.1900         39326.000      56.991
  21.2900         38889.000      56.886
  21.3900         39252.000      56.780
  21.4900         38986.000      56.241
  21.5900         39200.000      56.877
  21.6900         39308.000      57.289
  21.7900         39476.000      57.567
  21.8900         39449.000      56.569
  21.9900         39649.000      57.948
  22.0900         39638.000      57.228
  22.1900         39315.000      57.367
  22.2900         39627.000      57.411
  22.3900         39314.000      57.035
  22.4900         39624.000      56.727
  22.5900         39519.000      56.877
  22.6900         39316.000      57.228
  22.7900         39372.000      57.454
  22.8900         39623.000      57.819
  22.9900         39392.000      57.018
  23.0900         39524.000      57.654
  23.1900         39375.000      57.315
  23.2900         39768.000      57.376
  23.3900         39363.000      57.393
  23.4900         39465.000      56.701
  23.5900         39528.000      57.611
  23.6900         39783.000      57.420
  23.7900         39680.000      57.000
  23.8900         39887.000      57.576
  23.9900         39978.000      57.428
  24.0900         39962.000      57.437
  24.1900         39922.000      57.446
  24.2900         39853.000      57.723
  24.3900         39634.000      56.701
  24.4900         39705.000      56.886
  24.5900         39825.000      57.541
  24.6900         39731.000      57.593
  24.7900         39997.000      56.418
  24.8900         40096.000      58.515
  24.9900         40087.000      57.245
  25.0900         40189.000      57.732
  25.1900         39922.000      57.280
  25.2900         40137.000      57.411
  25.3900         40065.000      58.043
  25.4900         40261.000      57.706
  25.5900         39991.000      56.577
  25.6900         40007.000      57.611
  25.7900         39976.000      56.886
  25.8900         40161.000      57.758
  25.9900         39727.000      57.637
  26.0900         40553.000      57.749
  26.1900         40231.000      58.034
  26.2900         39845.000      57.793
  26.3900         40411.000      58.541
  26.4900         40011.000      57.671
  26.5900         39974.000      58.745
  26.6900         39981.000      57.602
  26.7900         39803.000      57.026
  26.8900         40115.000      57.819
  26.9900         40465.000      57.645
  27.0900         40001.000      57.420
  27.1900         40087.000      57.741
  27.2900         40152.000      56.577
  27.3900         39917.000      57.053
  27.4900         40093.000      57.228
  27.5900         40155.000      57.611
  27.6900         40143.000      57.341
  27.7900         40149.000      57.507
  27.8900         39758.000      56.462
  27.9900         40218.000      57.966
  28.0900         40136.000      57.228
  28.1900         40141.000      58.207
  28.2900         40229.000      57.420
  28.3900         39813.000      57.228
  28.4900         40609.000      56.365
  28.5900         40375.000      58.060
  28.6900         40047.000      57.184
  28.7900         39854.000      56.692
  28.8900         40155.000      57.836
  28.9900         40221.000      58.017
  29.0900         40297.000      57.836
  29.1900         40271.000      58.198
  29.2900         40316.000      58.395
  29.3900         40202.000      58.506
  29.4900         40078.000      58.069
  29.5900         40255.000      57.853
  29.6900         40664.000      58.805
  29.7900         40239.000      56.639
  29.8900         40700.000      57.723
  29.9900         40936.000      57.914
  30.0900         41182.000      58.660
  30.1900         40928.000      57.096
  30.2900         40445.000      57.446
  30.3900         40963.000      58.907
  30.4900         41278.000      58.258
  30.5900         41827.000      59.296
  30.6900         42185.000      59.431
  30.7900         42861.000      59.892
  30.8900         44918.000      61.172
  30.9900         47576.000      62.450
  31.0900         53744.000      67.498
  31.1900         60108.000      70.406
  31.2900         63311.000      72.712
  31.3900         63295.000      71.791
  31.4900         58531.000      69.138
  31.5900         52297.000      66.061
  31.6900         47292.000      62.354
  31.7900         43841.000      59.590
  31.8900         42219.000      60.514
  31.9900         42089.000      60.017
  32.0900         41356.000      59.405
  32.1900         41084.000      57.437
  32.2900         40706.000      57.922
  32.3900         40479.000      57.402
  32.4900         40742.000      58.129
  32.5900         40455.000      58.267
  32.6900         40196.000      59.447
  32.7900         40104.000      58.352
  32.8900         40271.000      57.896
  32.9900         40449.000      58.412
  33.0900         40472.000      57.983
  33.1900         40417.000      57.914
  33.2900         40012.000      57.123
  33.3900         40346.000      58.172
  33.4900         40141.000      57.671
  33.5900         40047.000      57.201
  33.6900         40400.000      58.617
  33.7900         40040.000      57.210
  33.8900         40444.000      58.404
  33.9900         39714.000      57.341
  34.0900         40674.000      58.796
  34.1900         40799.000      58.172
  34.2900         40895.000      57.991
  34.3900         40923.000      58.095
  34.4900         40607.000      58.121
  34.5900         40330.000      57.245
  34.6900         39991.000      57.637
  34.7900         40198.000      58.788
  34.8900         40151.000      57.896
  34.9900         40117.000      58.241
  35.0900         40449.000      58.412
  35.1900         40087.000      56.445
  35.2900         40257.000      57.184
  35.3900         39946.000      57.974
  35.4900         39778.000      58.112
  35.5900         40056.000      57.472
  35.6900         39987.000      57.297
  35.7900         39976.000      57.845
  35.8900         40073.000      58.455
  35.9900         40438.000      57.210
  36.0900         41204.000      58.164
  36.1900         42112.000      58.975
  36.2900         43323.000      60.959
  36.3900         44001.000      60.382
  36.4900         42820.000      59.657
  36.5900         41147.000      58.078
  36.6900         40635.000      58.198
  36.7900         40386.000      57.940
  36.8900         40031.000      57.498
  36.9900         40263.000      58.138
  37.0900         39834.000      57.131
  37.1900         40014.000      56.833
  37.2900         39764.000      57.524
  37.3900         39878.000      57.035
  37.4900         39732.000      57.280
  37.5900         39900.000      56.763
  37.6900         39587.000      57.810
  37.7900         39786.000      57.446
  37.8900         39586.000      57.149
  37.9900         39618.000      57.402
  38.0900         40048.000      57.550
  38.1900         39843.000      57.140
  38.2900         39635.000      57.428
  38.3900         39751.000      57.228
  38.4900         39876.000      57.871
  38.5900         39909.000      57.983
  38.6900         39533.000      57.689
  38.7900         39723.000      56.965
  38.8900         39678.000      57.158
  38.9900         39441.000      57.114
  39.0900         39518.000      57.079
  39.1900         39435.000      57.376
  39.2900         39887.000      57.219
  39.3900         39731.000      57.472
  39.4900         39739.000      56.982
  39.5900         39522.000      57.114
  39.6900         39736.000      57.931
  39.7900         39985.000      57.819
  39.8900         39498.000      56.551
  39.9900         39741.000      56.886
  40.0900         39320.000      56.639
  40.1900         39447.000      56.160
  40.2900         39612.000      57.585
  40.3900         39265.000      57.044
  40.4900         39727.000      58.026
  40.5900         39629.000      57.306
  40.6900         39790.000      57.827
  40.7900         39430.000      57.219
  40.8900         39424.000      56.630
  40.9900         39302.000      57.793
  41.0900         39402.000      56.710
  41.1900         39514.000      56.329
  41.2900         39837.000      57.402
  41.3900         39333.000      57.166
  41.4900         39331.000      56.630
  41.5900         39416.000      56.445
  41.6900         39644.000      57.158
  41.7900         39030.000      56.692
  41.8900         39402.000      57.680
  41.9900         39493.000      57.983
  42.0900         39181.000      57.541
  42.1900         39439.000      57.550
  42.2900         39523.000      56.675
  42.3900         39467.000      57.297
  42.4900         39405.000      57.420
  42.5900         39331.000      56.648
  42.6900         38904.000      55.857
  42.7900         39372.000      56.622
  42.8900         39164.000      57.079
  42.9900         39128.000      56.400
  43.0900         38707.000      56.507
  43.1900         38927.000      57.044
  43.2900         38564.000      57.166
  43.3900         39130.000      57.166
  43.4900         38808.000      56.507
  43.5900         39107.000      56.965
  43.6900         39361.000      57.332
  43.7900         38540.000      56.524
  43.8900         38286.000      56.445
  43.9900         38812.000      56.383
  44.0900         38933.000      57.061
  44.1900         38710.000      56.356
  44.2900         38911.000      56.285
  44.3900         38382.000      55.678
  44.4900         39080.000      56.205
  44.5900         39196.000      57.219
  44.6900         38962.000      57.236
  44.7900         38462.000      56.648
  44.8900         38752.000      56.143
  44.9900         38516.000      57.376
  45.0900         38442.000      56.780
  45.1900         38723.000      56.807
  45.2900         38886.000      57.184
  45.3900         38511.000      56.956
  45.4900         38865.000      55.902
  45.5900         38957.000      56.939
  45.6900         38431.000      56.930
  45.7900         38491.000      57.079
  45.8900         38785.000      57.332
  45.9900         38552.000      56.780
  46.0900         38441.000      55.893
  46.1900         38705.000      55.498
  46.2900         38399.000      56.613
  46.3900         38450.000      56.489
  46.4900         38592.000      56.000
  46.5900         38496.000      56.409
  46.6900         38832.000      56.727
  46.7900         38334.000      55.929
  46.8900         38236.000      56.877
  46.9900         38394.000      56.648
  47.0900         38583.000      56.877
  47.1900         38591.000      55.758
  47.2900         38558.000      56.533
  47.3900         38582.000      56.613
  47.4900         38750.000      56.604
  47.5900         38680.000      57.079
  47.6900         39329.000      57.819
  47.7900         39982.000      57.026
  47.8900         40023.000      58.138
  47.9900         39655.000      57.332
  48.0900         39366.000      56.498
  48.1900         38573.000      56.956
  48.2900         38803.000      56.895
  48.3900         38488.000      56.436
  48.4900         38491.000      56.560
  48.5900         38408.000      57.096
  48.6900         38159.000      56.418
  48.7900         37949.000      55.955
  48.8900         38171.000      56.196
  48.9900         38241.000      56.205
  49.0900         38296.000      56.338
  49.1900         38309.000      55.731
  49.2900         37998.000      56.745
  49.3900         38237.000      56.833
  49.4900         38347.000      56.542
  49.5900         38805.000      56.710
  49.6900         38210.000      56.666
  49.7900         38199.000      57.402
  49.8900         37930.000      55.785
  49.9900         38303.000      56.956
  50.0900         38528.000      56.125
  50.1900         38523.000      55.525
  50.2900         38468.000      57.184
  50.3900         38787.000      56.947
  50.4900         38430.000      55.803
  50.5900         38639.000      56.771
  50.6900         38173.000      56.692
  50.7900         38468.000      56.383
  50.8900         38456.000      56.524
  50.9900         38610.000      56.400
  51.0900         38428.000      56.098
  51.1900         38387.000      57.201
  51.2900         38627.000      57.009
  51.3900         38318.000      56.454
  51.4900         38815.000      56.533
  51.5900         39374.000      57.489
  51.6900         39435.000      57.079
  51.7900         39596.000      56.982
  51.8900         40221.000      57.393
  51.9900         41034.000      57.541
  52.0900         43486.000      60.233
  52.1900         45267.000      61.016
  52.2900         47749.000      63.174
  52.3900         49568.000      63.545
  52.4900         48465.000      63.953
  52.5900         46838.000      61.782
  52.6900         44399.000      60.605
  52.7900         42423.000      58.983
  52.8900         40509.000      56.815
  52.9900         39979.000      57.140
  53.0900         39095.000      56.780
  53.1900         38542.000      55.821
  53.2900         38490.000      55.597
  53.3900         38492.000      55.696
  53.4900         38514.000      55.946
  53.5900         38230.000      55.973
  53.6900         38396.000      56.868
  53.7900         38430.000      55.471
  53.8900         38205.000      56.745
  53.9900         38634.000      56.859
  54.0900         38251.000      55.946
  54.1900         38223.000      56.842
  54.2900         38493.000      56.833
  54.3900         38031.000      55.687
  54.4900         38043.000      56.427
  54.5900         38313.000      55.794
  54.6900         38333.000      56.391
  54.7900         38377.000      55.857
  54.8900         38448.000      55.982
  54.9900         38649.000      56.321
  55.0900         38127.000      56.312
  55.1900         38370.000      55.749
  55.2900         38494.000      55.785
  55.3900         38447.000      57.245
  55.4900         38501.000      56.347
  55.5900         38303.000      56.169
  55.6900         37884.000      56.409
  55.7900         38059.000      56.116
  55.8900         38380.000      56.569
  55.9900         38082.000      55.946
  56.0900         38218.000      56.338
  56.1900         38419.000      57.263
  56.2900         38429.000      56.560
  56.3900         38172.000      55.902
  56.4900         38065.000      56.586
  56.5900         38216.000      57.184
  56.6900         37984.000      56.480
  56.7900         38042.000      55.749
  56.8900         37895.000      55.471
  56.9900         38194.000      56.604
  57.0900         37951.000      55.893
  57.1900         38138.000      56.462
  57.2900         38218.000      56.036
  57.3900         38239.000      56.498
  57.4900         38511.000      55.444
  57.5900         38131.000      56.789
  57.6900         38094.000      56.365
  57.7900         38437.000      55.498
  57.8900         38415.000      55.507
  57.9900         38279.000      56.480
  58.0900         38077.000      55.597
  58.1900         37863.000      55.326
  58.2900         38022.000      56.285
  58.3900         38003.000      55.803
  58.4900         38028.000      55.453
  58.5900         38159.000      56.294
  58.6900         38442.000      55.911
  58.7900         38343.000      56.018
  58.8900         38378.000      56.134
  58.9900         38173.000      56.365
  59.0900         38140.000      55.920
  59.1900         38417.000      56.515
  59.2900         38122.000      56.391
  59.3900         38370.000      56.294
  59.4900         38182.000      55.830
  59.5900         38157.000      56.196
  59.6900         37930.000      55.749
  59.7900         38253.000      56.719
  59.8900         38427.000      57.026
  59.9900         38016.000      55.642
  60.0900         38521.000      56.134
  60.1900         38487.000      57.105
  60.2900         38344.000      56.480
  60.3900         38297.000      55.435
  60.4900         38540.000      56.789
  60.5900         38447.000      56.868
  60.6900         38462.000      57.123
  60.7900         38252.000      56.604
  60.8900         38589.000      57.385
  60.9900         38620.000      56.249
  61.0900         38722.000      56.196
  61.1900         38358.000      57.245
  61.2900         38755.000      56.780
  61.3900         39242.000      56.551
  61.4900         39528.000      58.172
  61.5900         39840.000      57.498
  61.6900         40486.000      57.350
  61.7900         41300.000      57.845
  61.8900         42377.000      60.025
  61.9900         43875.000      59.975
  62.0900         45664.000      61.685
  62.1900         47399.000      62.714
  62.2900         48075.000      63.024
  62.3900         48665.000      64.062
  62.4900         47619.000      62.562
  62.5900         46970.000      62.658
  62.6900         45311.000      60.274
  62.7900         43610.000      60.308
  62.8900         42064.000      59.666
  62.9900         40992.000      58.677
  63.0900         40065.000      57.411
  63.1900         40025.000      57.541
  63.2900         39340.000      57.315
  63.3900         39477.000      56.965
  63.4900         39348.000      57.393
  63.5900         39464.000      57.576
  63.6900         39455.000      56.974
  63.7900         38960.000      56.347
  63.8900         39581.000      57.263
  63.9900         39956.000      57.332
  64.0900         40616.000      58.694
  64.1900         40443.000      57.697
  64.2900         40803.000      57.827
  64.3900         42487.000      59.883
  64.4900         43638.000      59.867
  64.5900         46632.000      62.562
  64.6900         50248.000      65.681
  64.7900         55606.000      68.659
  64.8900         64131.000      73.437
  64.9900         74093.000      78.416
  65.0900         84675.000      84.564
  65.1900         96414.000      89.733
  65.2900        107026.000      94.816
  65.3900        114229.000      96.861
  65.4900        116474.000      98.524
  65.5900        113596.000      97.134
  65.6900        107198.000      94.958
  65.7900         95693.000      89.493
  65.8900         84106.000      83.510
  65.9900         71994.000      77.994
  66.0900         61768.000      70.993
  66.1900         54363.000      66.813
  66.2900         48887.000      63.332
  66.3900         45901.000      61.733
  66.4900         43249.000      59.716
  66.5900         41434.000      59.085
  66.6900         40947.000      58.198
  66.7900         40593.000      57.715
  66.8900         39660.000      57.428
  66.9900         39441.000      57.053
  67.0900         38899.000      57.236
  67.1900         38567.000      56.542
  67.2900         38941.000      57.026
  67.3900         38517.000      56.071
  67.4900         38468.000      56.683
  67.5900         38677.000      55.570
  67.6900         38870.000      56.657
  67.7900         38488.000      56.480
  67.8900         38554.000      56.294
  67.9900         38331.000      57.044
  68.0900         38154.000      55.767
  68.1900         37993.000      55.498
  68.2900         37721.000      56.480
  68.3900         37300.000      56.312
  68.4900         37355.000      55.884
  68.5900         37664.000      55.884
  68.6900         37455.000      56.045
  68.7900         36944.000      54.818
  68.8900         37229.000      57.009
  68.9900         37688.000      55.543
  69.0900         37092.000      55.200
  69.1900         37283.000      54.635
  69.2900         37264.000      56.062
  69.3900         37215.000      56.125
  69.4900         37564.000      56.560
  69.5900         36881.000      55.182
  69.6900         36927.000      55.857
  69.7900         37345.000      55.399
  69.8900         37019.000      54.653
  69.9900         37004.000      56.347
  70.0900         37008.000      55.489
  70.1900         37210.000      56.303
  70.2900         37168.000      56.329
  70.3900         37058.000      54.763
  70.4900         36761.000      55.606
  70.5900         36992.000      55.362
  70.6900         36750.000      55.651
  70.7900         36760.000      55.776
  70.8900         37168.000      55.417
  70.9900         36965.000      55.615
  71.0900         36893.000      55.714
  71.1900         37020.000      56.577
  71.2900         37694.000      56.701
  71.3900         38259.000      56.683
  71.4900         38235.000      56.657
  71.5900         38596.000      57.350
  71.6900         39146.000      56.745
  71.7900         39557.000      56.294
  71.8900         40267.000      57.175
  71.9900         40756.000      59.025
  72.0900         40916.000      58.215
  72.1900         41403.000      58.489
  72.2900         41802.000      58.172
  72.3900         41323.000      58.864
  72.4900         41059.000      58.429
  72.5900         40625.000      57.324
  72.6900         40394.000      57.931
  72.7900         39325.000      57.096
  72.8900         38996.000      56.258
  72.9900         38147.000      56.365
  73.0900         37492.000      55.326
  73.1900         37553.000      55.955
  73.2900         37419.000      55.794
  73.3900         37401.000      56.054
  73.4900         36991.000      55.399
  73.5900         37399.000      56.577
  73.6900         37296.000      56.080
  73.7900         37321.000      55.353
  73.8900         37661.000      55.731
  73.9900         37497.000      55.660
  74.0900         37994.000      55.606
  74.1900         38440.000      56.798
  74.2900         38906.000      56.895
  74.3900         39824.000      57.480
  74.4900         41003.000      58.558
  74.5900         42254.000      58.881
  74.6900         44185.000      60.828
  74.7900         46290.000      61.245
  74.8900         48527.000      63.056
  74.9900         50351.000      65.192
  75.0900         52742.000      65.901
  75.1900         54677.000      67.897
  75.2900         55870.000      68.154
  75.3900         56005.000      68.535
  75.4900         55869.000      68.088
  75.5900         53806.000      66.491
  75.6900         52709.000      66.776
  75.7900         50928.000      64.792
  75.8900         49244.000      64.055
  75.9900         48008.000      62.825
  76.0900         46708.000      62.258
  76.1900         46874.000      62.586
  76.2900         48771.000      63.530
  76.3900         52310.000      65.772
  76.4900         57294.000      69.484
  76.5900         63416.000      72.567
  76.6900         71634.000      77.730
  76.7900         79532.000      81.277
  76.8900         87875.000      85.551
  76.9900         97005.000      90.150
  77.0900        104508.000      93.541
  77.1900        110161.000      94.958
  77.2900        113176.000      97.165
  77.3900        111920.000      96.747
  77.4900        107357.000      93.995
  77.5900        100557.000      90.874
  77.6900         92649.000      88.369
  77.7900         83206.000      83.331
  77.8900         73667.000      79.171
  77.9900         64638.000      74.250
  78.0900         57154.000      69.181
  78.1900         51788.000      64.769
  78.2900         47836.000      62.785
  78.3900         44694.000      61.270
  78.4900         42832.000      59.825
  78.5900         40899.000      58.686
  78.6900         40495.000      58.241
  78.7900         39566.000      57.009
  78.8900         38955.000      56.798
  78.9900         38179.000      55.624
  79.0900         37931.000      56.701
  79.1900         38033.000      56.347
  79.2900         37821.000      54.836
  79.3900         37374.000      55.489
  79.4900         37313.000      54.461
  79.5900         37328.000      55.381
  79.6900         37076.000      55.991
  79.7900         37001.000      54.936
  79.8900         36905.000      54.727
  79.9900         36665.000      55.606
  80.0900         36252.000      54.644
  80.1900         36006.000      55.163
  80.2900         36476.000      55.381
  80.3900         36174.000      55.687
  80.4900         36110.000      55.408
  80.5900         35855.000      54.745
  80.6900         36129.000      54.763
  80.7900         35926.000      54.470
  80.8900         35649.000      55.390
  80.9900         35436.000      53.898
  81.0900         35665.000      54.745
  81.1900         35521.000      54.185
  81.2900         35976.000      54.827
  81.3900         35599.000      53.833
  81.4900         35439.000      54.498
  81.5900         35234.000      54.387
  81.6900         35535.000      54.791
  81.7900         35559.000      53.666
  81.8900         35176.000      54.185
  81.9900         35387.000      54.111
  82.0900         35447.000      54.139
  82.1900         35358.000      53.842
  82.2900         35287.000      54.065
  82.3900         35541.000      53.972
  82.4900         35327.000      53.273
  82.5900         35291.000      54.166
  82.6900         35218.000      54.534
  82.7900         35092.000      54.148
  82.8900         35125.000      54.525
  82.9900         35084.000      53.972
  83.0900         35223.000      53.972
  83.1900         35183.000      54.571
  83.2900         35397.000      53.814
  83.3900         35131.000      54.157
  83.4900         35142.000      54.213
  83.5900         35186.000      54.046
  83.6900         35002.000      53.141
  83.7900         35387.000      53.889
  83.8900         34994.000      54.378
  83.9900         35294.000      55.154
  84.0900         35176.000      54.277
  84.1900         35287.000      54.332
  84.2900         35277.000      53.777
  84.3900         35602.000      54.589
  84.4900         35864.000      54.415
  84.5900         35762.000      54.406
  84.6900         36297.000      54.498
  84.7900         37124.000      55.191
  84.8900         36701.000      55.290
  84.9900         37914.000      55.696
  85.0900         38348.000      57.061
  85.1900         39041.000      57.271
  85.2900         39707.000      56.727
  85.3900         40106.000      58.344
  85.4900         40831.000      57.428
  85.5900         41482.000      59.119
  85.6900         41762.000      58.472
  85.7900         41825.000      59.271
  85.8900         41494.000      59.372
  85.9900         40988.000      57.983
  86.0900         40772.000      57.922
  86.1900         39974.000      57.706
  86.2900         38894.000      56.974
  86.3900         38450.000      56.400
  86.4900         37546.000      56.356
  86.5900         36929.000      56.160
  86.6900         36409.000      54.507
  86.7900         36037.000      55.118
  86.8900         35333.000      54.516
  86.9900         35373.000      54.489
  87.0900         35228.000      54.332
  87.1900         35208.000      53.339
  87.2900         35065.000      54.065
  87.3900         34910.000      54.213
  87.4900         35244.000      53.235
  87.5900         35468.000      53.824
  87.6900         35027.000      54.259
  87.7900         35181.000      54.369
  87.8900         35309.000      53.852
  87.9900         35463.000      54.028
  88.0900         35735.000      54.745
  88.1900         35967.000      54.891
  88.2900         36470.000      54.489
  88.3900         37081.000      54.991
  88.4900         37821.000      57.026
  88.5900         38181.000      55.973
  88.6900         38767.000      57.158
  88.7900         39685.000      57.280
  88.8900         40546.000      57.896
  88.9900         41132.000      58.112
  89.0900         42077.000      58.583
  89.1900         42817.000      59.983
  89.2900         44043.000      60.424
  89.3900         44669.000      60.696
  89.4900         45477.000      60.498
  89.5900         46028.000      60.828
  89.6900         46704.000      62.073
  89.7900         46338.000      61.952
  89.8900         46493.000      62.338
  89.9900         45885.000      61.156
  90.0900         44921.000      60.910
  90.1900         43989.000      59.110
  90.2900         42706.000      58.932
  90.3900         41859.000      58.728
  90.4900         40632.000      57.541
  90.5900         39758.000      56.921
  90.6900         39016.000      56.569
  90.7900         37984.000      55.758
  90.8900         37242.000      55.127
  90.9900         36463.000      55.091
  91.0900         36083.000      54.498
  91.1900         35673.000      54.295
  91.2900         35441.000      53.777
  91.3900         35456.000      53.954
  91.4900         35181.000      53.684
  91.5900         35324.000      53.926
  91.6900         35042.000      53.796
  91.7900         34543.000      53.263
  91.8900         34400.000      53.666
  91.9900         34978.000      53.991
  92.0900         34381.000      52.460
  92.1900         34537.000      52.659
  92.2900         34299.000      53.245
  92.3900         34164.000      53.104
  92.4900         34602.000      52.211
  92.5900         34582.000      52.896
  92.6900         34578.000      53.516
  92.7900         34323.000      53.544
  92.8900         34612.000      53.385
  92.9900         34239.000      53.972
  93.0900         34418.000      53.600
  93.1900         34306.000      54.360
  93.2900         34363.000      53.666
  93.3900         34142.000      54.009
  93.4900         34068.000      52.631
  93.5900         34631.000      52.479
  93.6900         34346.000      52.764
  93.7900         33950.000      54.699
  93.8900         34154.000      53.722
  93.9900         34256.000      53.889
  94.0900         34178.000      53.019
  94.1900         34522.000      53.619
  94.2900         34534.000      52.536
  94.3900         34418.000      52.479
  94.4900         34588.000      53.870
  94.5900         34227.000      53.591
  94.6900         34417.000      54.699
  94.7900         34568.000      54.240
  94.8900         34143.000      53.413
  94.9900         34174.000      53.235
  95.0900         34306.000      53.085
  95.1900         34246.000      53.470
  95.2900         34191.000      52.421
  95.3900         34109.000      53.460
  95.4900         34004.000      52.943
  95.5900         34079.000      53.094
  95.6900         34352.000      53.554
  95.7900         34278.000      53.879
  95.8900         34991.000      54.120
  95.9900         34688.000      53.245
  96.0900         34556.000      54.571
  96.1900         34608.000      52.915
  96.2900         34938.000      53.805
  96.3900         34464.000      54.479
  96.4900         34761.000      52.934
  96.5900         34487.000      54.534
  96.6900         34469.000      52.849
  96.7900         34684.000      53.367
  96.8900         34306.000      53.339
  96.9900         34664.000      53.179
  97.0900         34423.000      53.981
  97.1900         34153.000      52.906
  97.2900         33898.000      52.602
  97.3900         34027.000      53.498
  97.4900         34295.000      52.393
  97.5900         33961.000      53.104
  97.6900         34081.000      53.057
  97.7900         33874.000      52.640
  97.8900         34118.000      52.887
  97.9900         34318.000      53.759
  98.0900         34272.000      53.628
  98.1900         34204.000      52.364
  98.2900         34812.000      53.460
  98.3900         34216.000      53.479
  98.4900         34296.000      53.292
  98.5900         34169.000      53.861
  98.6900         34564.000      53.263
  98.7900         34220.000      53.861
  98.8900         34619.000      54.139
  98.9900         34248.000      53.385
  99.0900         34754.000      54.332
  99.1900         34672.000      54.028
  99.2900         34912.000      53.188
  99.3900         35179.000      52.820
  99.4900         35269.000      53.981
  99.5900         35948.000      54.166
  99.6900         35757.000      54.498
  99.7900         35804.000      54.708
  99.8900         36054.000      55.073
  99.9900         36121.000      54.498
 100.0900         36216.000      54.305
 100.1900         35703.000      54.918
 100.2900         35712.000      54.644
 100.3900         35507.000      54.148
 100.4900         35174.000      53.991
 100.5900         34833.000      53.759
 100.6900         34638.000      53.787
 100.7900         34833.000      53.075
 100.8900         34657.000      53.009
 100.9900         34165.000      53.935
 101.0900         34359.000      53.516
 101.1900         34236.000      53.507
 101.2900         34386.000      53.879
 101.3900         34119.000      52.726
 101.4900         33786.000      53.498
 101.5900         34238.000      52.981
 101.6900         34042.000      53.488
 101.7900         34202.000      53.423
 101.8900         34393.000      53.861
 101.9900         33952.000      53.235
 102.0900         34079.000      53.226
 102.1900         34199.000      54.185
 102.2900         33860.000      52.820
 102.3900         34187.000      53.019
 102.4900         34317.000      53.675
 102.5900         34020.000      52.858
 102.6900         33766.000      51.971
 102.7900         34090.000      52.868
 102.8900         33815.000      53.292
 102.9900         34022.000      53.235
 103.0900         33932.000      52.792
 103.1900         33979.000      52.612
 103.2900         34389.000      53.563
 103.3900         34077.000      53.329
 103.4900         34303.000      53.329
 103.5900         34039.000      52.896
 103.6900         34047.000      53.619
 103.7900         33714.000      52.450
 103.8900         34204.000      53.047
 103.9900         34020.000      52.981
 104.0900         34143.000      54.203
 104.1900         34243.000      52.640
 104.2900         33887.000      53.104
 104.3900         34159.000      52.526
 104.4900         34381.000      53.889
 104.5900         34232.000      53.198
 104.6900         33937.000      53.852
 104.7900         34648.000      53.516
 104.8900         34333.000      52.745
 104.9900         34284.000      53.759
 105.0900         33994.000      53.226
 105.1900         34698.000      53.357
 105.2900         34231.000      53.861
 105.3900         34084.000      53.009
 105.4900         34516.000      53.647
 105.5900         34477.000      53.749
 105.6900         34533.000      53.777
 105.7900         34714.000      53.981
 105.8900         34748.000      52.811
 105.9900         35162.000      54.295
 106.0900         35366.000      54.672
 106.1900         35209.000      55.027
 106.2900         35484.000      54.827
 106.3900         35788.000      54.854
 106.4900         36252.000      55.381
 106.5900         36859.000      55.848
 106.6900         37524.000      55.714
 106.7900         38598.000      56.445
 106.8900         39415.000      57.123
 106.9900         41165.000      57.948
 107.0900         42265.000      59.085
 107.1900         43886.000      60.432
 107.2900         45624.000      61.368
 107.3900         47304.000      62.048
 107.4900         49015.000      64.000
 107.5900         51678.000      65.605
 107.6900         53345.000      65.985
 107.7900         55499.000      67.624
 107.8900         57261.000      69.282
 107.9900         59484.000      69.728
 108.0900         61261.000      71.400
 108.1900         62656.000      71.673
 108.2900         63329.000      72.842
 108.3900         64035.000      73.648
 108.4900         63880.000      72.684
 108.5900         63015.000      72.333
 108.6900         62897.000      72.560
 108.7900         61630.000      71.484
 108.8900         59514.000      71.400
 108.9900         57960.000      69.296
 109.0900         55375.000      67.831
 109.1900         53644.000      66.400
 109.2900         51151.000      64.823
 109.3900         49738.000      64.218
 109.4900         47436.000      62.064
 109.5900         45471.000      61.319
 109.6900         44145.000      60.902
 109.7900         42569.000      58.583
 109.8900         40574.000      58.669
 109.9900         39821.000      57.966
 110.0900         38798.000      55.884
 110.1900         37384.000      56.160
 110.2900         36571.000      54.845
 110.3900         35994.000      54.397
 110.4900         36000.000      54.909
 110.5900         35679.000      55.182
 110.6900         35287.000      55.426
 110.7900         34726.000      53.385
 110.8900         34594.000      53.498
 110.9900         34474.000      54.139
 111.0900         34380.000      52.431
 111.1900         34147.000      53.057
 111.2900         34235.000      52.173
 111.3900         34058.000      53.666
 111.4900         33952.000      52.612
 111.5900         34033.000      53.516
 111.6900         34162.000      53.666
 111.7900         34477.000      53.292
 111.8900         33898.000      52.953
 111.9900         33675.000      52.877
 112.0900         34140.000      52.555
 112.1900         33997.000      52.849
 112.2900         34621.000      53.348
 112.3900         34488.000      54.028
 112.4900         34237.000      53.833
 112.5900         34289.000      53.367
 112.6900         34527.000      53.759
 112.7900         34381.000      52.650
 112.8900         34557.000      54.626
 112.9900         34514.000      54.249
 113.0900         34581.000      53.981
 113.1900         34762.000      54.129
 113.2900         34796.000      53.123
 113.3900         34782.000      54.286
 113.4900         34562.000      53.852
 113.5900         34285.000      52.820
 113.6900         34561.000      54.111
 113.7900         34089.000      53.600
 113.8900         34273.000      53.198
 113.9900         34419.000      53.703
 114.0900         34308.000      53.703
 114.1900         33880.000      53.085
 114.2900         33657.000      52.335
 114.3900         33930.000      53.526
 114.4900         33698.000      52.154
 114.5900         33601.000      53.009
 114.6900         33814.000      53.507
 114.7900         33737.000      53.198
 114.8900         33661.000      51.913
 114.9900         33884.000      53.217
 115.0900         33466.000      53.357
 115.1900         33471.000      53.028
 115.2900         33235.000      53.170
 115.3900         32999.000      52.621
 115.4900         33499.000      52.792
 115.5900         33349.000      52.173
 115.6900         33270.000      52.288
 115.7900         33215.000      52.316
 115.8900         33245.000      53.000
 115.9900         33015.000      52.469
 116.0900         33368.000      52.440
 116.1900         33309.000      52.202
 116.2900         33365.000      52.887
 116.3900         33509.000      53.479
 116.4900         33220.000      52.849
 116.5900         33124.000      52.849
 116.6900         32929.000      51.836
 116.7900         33315.000      52.754
 116.8900         33203.000      52.479
 116.9900         33082.000      52.545
 117.0900         33191.000      51.827
 117.1900         33349.000      51.807
 117.2900         33284.000      53.104
 117.3900         33273.000      53.207
 117.4900         33045.000      52.726
 117.5900         33549.000      53.638
 117.6900         33400.000      52.924
 117.7900         33058.000      53.263
 117.8900         33206.000      53.282
 117.9900         33281.000      52.593
 118.0900         33209.000      52.877
 118.1900         32901.000      52.659
 118.2900         33446.000      52.479
 118.3900         33204.000      52.659
 118.4900         33351.000      51.565
 118.5900         33069.000      51.981
 118.6900         33405.000      53.235
 118.7900         33261.000      52.564
 118.8900         33468.000      52.953
 118.9900         33226.000      52.697
 119.0900         33175.000      52.230
 119.1900         33528.000      52.839
 119.2900         33294.000      52.650
 119.3900         33781.000      53.507
 119.4900         33641.000      52.773
 119.5900         33808.000      53.367
 119.6900         33516.000      53.000
 119.7900         33676.000      53.179
 119.8900         33949.000      53.094
 119.9900         33850.000      52.678
 120.0900         34065.000      53.638
 120.1900         34168.000      53.207
 120.2900         34246.000      53.722
 120.3900         33994.000      53.460
 120.4900         33893.000      52.507
 120.5900         34307.000      53.610
 120.6900         34753.000      54.028
 120.7900         34810.000      53.385
 120.8900         35335.000      53.981
 120.9900         35424.000      53.935
 121.0900         35769.000      54.222
 121.1900         36427.000      55.055
 121.2900         37089.000      55.227
 121.3900         37782.000      56.009
 121.4900         38664.000      56.241
 121.5900         40077.000      57.758
 121.6900         41171.000      58.310
 121.7900         42309.000      59.599
 121.8900         44180.000      60.407
 121.9900         46393.000      61.806
 122.0900         48594.000      63.190
 122.1900         50644.000      65.108
 122.2900         52949.000      66.880
 122.3900         55908.000      68.169
 122.4900         58677.000      69.900
 122.5900         61843.000      71.708
 122.6900         65519.000      74.175
 122.7900         68528.000      75.802
 122.8900         72299.000      77.356
 122.9900         75493.000      79.906
 123.0900         79619.000      80.852
 123.1900         83589.000      82.879
 123.2900         87076.000      84.362
 123.3900         90025.000      86.023
 123.4900         94050.000      89.269
 123.5900         97371.000      90.200
 123.6900        100235.000      91.060
 123.7900        102614.000      92.509
 123.8900        103905.000      92.725
 123.9900        106138.000      93.515
 124.0900        106455.000      93.755
 124.1900        106421.000      93.370
 124.2900        105515.000      93.686
 124.3900        104119.000      92.704
 124.4900        102286.000      92.217
 124.5900         99632.000      90.896
 124.6900         96609.000      88.983
 124.7900         93080.000      87.932
 124.8900         89177.000      86.041
 124.9900         84880.000      84.546
 125.0900         81565.000      82.043
 125.1900         78364.000      80.573
 125.2900         74341.000      78.498
 125.3900         71196.000      76.570
 125.4900         67814.000      75.571
 125.5900         64173.000      73.376
 125.6900         60603.000      71.267
 125.7900         57511.000      68.586
 125.8900         54646.000      67.838
 125.9900         52130.000      65.612
 126.0900         49000.000      63.898
 126.1900         47164.000      63.071
 126.2900         45277.000      61.490
 126.3900         42975.000      58.924
 126.4900         41962.000      58.455
 126.5900         41148.000      58.549
 126.6900         39597.000      57.271
 126.7900         38728.000      56.780
 126.8900         38125.000      56.639
 126.9900         37299.000      55.136
 127.0900         36568.000      55.543
 127.1900         36670.000      55.821
 127.2900         36061.000      54.827
 127.3900         35679.000      53.094
 127.4900         35283.000      54.056
 127.5900         34825.000      53.310
 127.6900         34469.000      53.141
 127.7900         34165.000      52.981
 127.8900         34580.000      54.046
 127.9900         33986.000      53.085
 128.0900         33963.000      52.953
 128.1900         33705.000      52.858
 128.2900         33436.000      52.811
 128.3900         33523.000      52.716
 128.4900         33546.000      53.085
 128.5900             6.000       1.000
 128.6900             6.000       1.000
