XYDATA edurneorf Co3O4-quenched_500_1.5K 
INTER        1       1       0     0.100000
TEMP       1.42550      1.62750      1.50000
! d1b Date 13-Nov-11 Time 19:10:56 Run 129876 129865>129876
! d1b Date 13-Nov-11 Time 19:10:56 Run 129876 129865>129876
! Monitor/counts, Counting time/sec:  1.09197e+007 1.09197e+007
   0.7900             6.000       1.000
   0.8900             7.000       1.000
   0.9900          2157.000      13.675
   1.0900          2157.000      12.649
   1.1900          2156.000      14.142
   1.2900          2108.000      13.565
   1.3900          2073.000      12.124
   1.4900          2143.000      14.071
   1.5900          2078.000      13.153
   1.6900          2311.000      13.964
   1.7900          2815.000      15.330
   1.8900          4241.000      18.921
   1.9900          6759.000      24.228
   2.0900          9084.000      26.851
   2.1900         11166.000      30.610
   2.2900         14426.000      34.351
   2.3900         17953.000      38.536
   2.4900         22047.000      43.232
   2.5900         25792.000      46.433
   2.6900         29722.000      49.970
   2.7900         32537.000      51.420
   2.8900         35510.000      53.479
   2.9900         38453.000      56.498
   3.0900         41346.000      59.313
   3.1900         44220.000      61.098
   3.2900         45520.000      61.717
   3.3900         45858.000      61.782
   3.4900         45384.000      61.522
   3.5900         45108.000      61.571
   3.6900         44208.000      60.424
   3.7900         43841.000      60.117
   3.8900         42573.000      59.051
   3.9900         43733.000      60.357
   4.0900         43618.000      59.908
   4.1900         43806.000      60.745
   4.2900         43723.000      60.737
   4.3900         43937.000      59.532
   4.4900         44450.000      60.332
   4.5900         45837.000      62.089
   4.6900         48223.000      63.317
   4.7900         50713.000      65.284
   4.8900         52778.000      66.098
   4.9900         55576.000      67.993
   5.0900         57368.000      68.949
   5.1900         59758.000      70.463
   5.2900         61970.000      72.374
   5.3900         64070.000      73.587
   5.4900         65637.000      74.478
   5.5900         68234.000      76.072
   5.6900         70101.000      76.805
   5.7900         72050.000      77.640
   5.8900         73444.000      77.627
   5.9900         75213.000      78.600
   6.0900         76591.000      79.887
   6.1900         77445.000      80.449
   6.2900         76983.000      80.461
   6.3900         76367.000      79.950
   6.4900         76352.000      79.574
   6.5900         75717.000      78.905
   6.6900         74886.000      79.656
   6.7900         75068.000      78.006
   6.8900         74516.000      77.942
   6.9900         73770.000      77.556
   7.0900         73446.000      77.369
   7.1900         72228.000      77.647
   7.2900         71718.000      77.039
   7.3900         71404.000      76.026
   7.4900         70710.000      76.400
   7.5900         69993.000      75.881
   7.6900         68529.000      75.326
   7.7900         68187.000      75.558
   7.8900         67296.000      74.987
   7.9900         66218.000      73.314
   8.0900         65678.000      73.178
   8.1900         64859.000      73.171
   8.2900         64517.000      73.273
   8.3900         63134.000      72.615
   8.4900         62583.000      71.316
   8.5900         61130.000      71.267
   8.6900         60646.000      70.781
   8.7900         59720.000      69.800
   8.8900         58475.000      69.289
   8.9900         57549.000      68.833
   9.0900         56985.000      68.140
   9.1900         55950.000      68.352
   9.2900         55146.000      67.565
   9.3900         54327.000      66.438
   9.4900         54128.000      66.701
   9.5900         53104.000      66.068
   9.6900         51882.000      65.284
   9.7900         50908.000      65.138
   9.8900         50135.000      63.914
   9.9900         49288.000      64.514
  10.0900         48551.000      63.340
  10.1900         47297.000      62.129
  10.2900         47024.000      61.262
  10.3900         45771.000      61.008
  10.4900         44998.000      60.943
  10.5900         44833.000      60.249
  10.6900         44439.000      60.959
  10.7900         43642.000      60.083
  10.8900         43246.000      59.287
  10.9900         43101.000      59.975
  11.0900         42871.000      59.161
  11.1900         42447.000      58.626
  11.2900         42450.000      60.058
  11.3900         42465.000      58.634
  11.4900         42148.000      59.321
  11.5900         41998.000      59.565
  11.6900         42366.000      58.949
  11.7900         42385.000      59.967
  11.8900         42111.000      59.389
  11.9900         42512.000      59.068
  12.0900         42046.000      58.737
  12.1900         41999.000      58.060
  12.2900         42075.000      59.076
  12.3900         42185.000      59.397
  12.4900         41883.000      57.585
  12.5900         41557.000      58.284
  12.6900         41675.000      59.389
  12.7900         41667.000      58.796
  12.8900         41711.000      58.060
  12.9900         41515.000      57.905
  13.0900         41592.000      58.344
  13.1900         41566.000      59.615
  13.2900         41878.000      59.203
  13.3900         41334.000      59.034
  13.4900         41474.000      58.060
  13.5900         41534.000      58.686
  13.6900         41693.000      58.788
  13.7900         41472.000      58.754
  13.8900         41593.000      59.144
  13.9900         41658.000      58.617
  14.0900         41394.000      57.991
  14.1900         41921.000      58.421
  14.2900         41794.000      58.864
  14.3900         41350.000      57.541
  14.4900         41464.000      57.957
  14.5900         41582.000      58.438
  14.6900         41390.000      58.438
  14.7900         41607.000      57.957
  14.8900         41361.000      58.643
  14.9900         41209.000      58.949
  15.0900         41729.000      58.215
  15.1900         41669.000      57.480
  15.2900         42843.000      59.833
  15.3900         42915.000      59.414
  15.4900         42898.000      58.771
  15.5900         42653.000      58.924
  15.6900         41590.000      58.566
  15.7900         41393.000      57.593
  15.8900         40712.000      57.914
  15.9900         40842.000      58.617
  16.0900         40781.000      56.930
  16.1900         40940.000      57.567
  16.2900         40738.000      58.232
  16.3900         40827.000      57.550
  16.4900         41225.000      58.060
  16.5900         40824.000      58.515
  16.6900         40939.000      57.628
  16.7900         40790.000      57.966
  16.8900         40435.000      57.332
  16.9900         40611.000      58.541
  17.0900         40937.000      57.741
  17.1900         40906.000      57.706
  17.2900         40863.000      57.602
  17.3900         40749.000      58.335
  17.4900         40838.000      58.207
  17.5900         41326.000      58.387
  17.6900         41781.000      58.558
  17.7900         41353.000      58.643
  17.8900         41922.000      58.103
  17.9900         41424.000      58.069
  18.0900         41226.000      58.489
  18.1900         41667.000      58.378
  18.2900         40769.000      58.043
  18.3900         40847.000      57.524
  18.4900         40765.000      58.121
  18.5900         41102.000      58.310
  18.6900         41143.000      58.078
  18.7900         41521.000      58.822
  18.8900         41126.000      57.166
  18.9900         41051.000      58.694
  19.0900         41053.000      58.103
  19.1900         41200.000      58.310
  19.2900         41081.000      58.412
  19.3900         40608.000      57.974
  19.4900         41097.000      58.694
  19.5900         40788.000      57.297
  19.6900         40732.000      58.138
  19.7900         41201.000      57.991
  19.8900         41052.000      58.301
  19.9900         41187.000      57.991
  20.0900         40493.000      57.280
  20.1900         41227.000      58.412
  20.2900         41477.000      57.845
  20.3900         40950.000      58.095
  20.4900         41186.000      57.810
  20.5900         41207.000      58.907
  20.6900         41242.000      58.189
  20.7900         41073.000      58.000
  20.8900         41167.000      58.000
  20.9900         41283.000      58.617
  21.0900         41118.000      57.983
  21.1900         41205.000      57.585
  21.2900         41313.000      57.819
  21.3900         41122.000      58.078
  21.4900         41511.000      58.121
  21.5900         41504.000      58.932
  21.6900         41543.000      57.715
  21.7900         41178.000      58.523
  21.8900         41786.000      58.558
  21.9900         41286.000      58.318
  22.0900         41721.000      58.720
  22.1900         41448.000      58.677
  22.2900         41382.000      58.737
  22.3900         41374.000      58.395
  22.4900         41731.000      58.779
  22.5900         41558.000      59.102
  22.6900         41789.000      58.026
  22.7900         41834.000      58.839
  22.8900         41888.000      58.395
  22.9900         41831.000      58.677
  23.0900         41672.000      57.914
  23.1900         41734.000      58.813
  23.2900         41927.000      58.720
  23.3900         41849.000      58.172
  23.4900         41977.000      58.017
  23.5900         41751.000      58.086
  23.6900         41970.000      58.796
  23.7900         41889.000      58.796
  23.8900         42269.000      59.582
  23.9900         42488.000      58.095
  24.0900         42432.000      58.241
  24.1900         42250.000      58.310
  24.2900         42050.000      58.172
  24.3900         42066.000      59.414
  24.4900         42073.000      58.975
  24.5900         42063.000      58.805
  24.6900         42294.000      58.720
  24.7900         41802.000      58.600
  24.8900         42056.000      58.232
  24.9900         42000.000      58.703
  25.0900         42010.000      58.352
  25.1900         42214.000      58.703
  25.2900         42349.000      58.249
  25.3900         42702.000      58.703
  25.4900         42939.000      59.422
  25.5900         42634.000      59.025
  25.6900         42583.000      59.110
  25.7900         42154.000      58.464
  25.8900         42556.000      59.245
  25.9900         42086.000      58.805
  26.0900         42856.000      59.008
  26.1900         43054.000      59.699
  26.2900         42775.000      58.779
  26.3900         42452.000      59.506
  26.4900         42362.000      58.983
  26.5900         42959.000      59.169
  26.6900         42527.000      59.051
  26.7900         42247.000      59.051
  26.8900         42307.000      58.489
  26.9900         42614.000      58.335
  27.0900         42803.000      58.301
  27.1900         42569.000      59.195
  27.2900         42619.000      59.051
  27.3900         42845.000      59.119
  27.4900         42600.000      58.455
  27.5900         42516.000      59.254
  27.6900         43011.000      60.183
  27.7900         42784.000      58.915
  27.8900         42721.000      59.228
  27.9900         42932.000      58.856
  28.0900         42937.000      59.127
  28.1900         42733.000      59.025
  28.2900         42846.000      59.506
  28.3900         42909.000      60.108
  28.4900         43224.000      59.649
  28.5900         43215.000      59.355
  28.6900         43168.000      58.805
  28.7900         43095.000      59.582
  28.8900         43098.000      60.067
  28.9900         43427.000      59.203
  29.0900         43183.000      58.788
  29.1900         42799.000      59.211
  29.2900         43284.000      58.378
  29.3900         43539.000      59.691
  29.4900         43838.000      60.017
  29.5900         44116.000      59.933
  29.6900         43675.000      60.291
  29.7900         44237.000      60.424
  29.8900         44971.000      60.770
  29.9900         45377.000      60.811
  30.0900         45185.000      61.000
  30.1900         45309.000      61.164
  30.2900         45327.000      60.283
  30.3900         45840.000      61.254
  30.4900         46470.000      61.049
  30.5900         47438.000      62.097
  30.6900         49378.000      63.222
  30.7900         51778.000      65.521
  30.8900         56392.000      67.772
  30.9900         64174.000      73.192
  31.0900         74854.000      78.083
  31.1900         87940.000      84.581
  31.2900         96451.000      89.443
  31.3900         97277.000      90.526
  31.4900         88201.000      85.592
  31.5900         75487.000      79.649
  31.6900         63710.000      72.090
  31.7900         55941.000      68.513
  31.8900         51592.000      64.892
  31.9900         49067.000      63.836
  32.0900         47781.000      61.587
  32.1900         46362.000      61.871
  32.2900         45693.000      60.506
  32.3900         45446.000      61.057
  32.4900         44874.000      61.311
  32.5900         44404.000      59.825
  32.6900         44634.000      59.908
  32.7900         44511.000      59.800
  32.8900         44204.000      59.724
  32.9900         44596.000      59.858
  33.0900         44471.000      59.422
  33.1900         43947.000      59.875
  33.2900         43714.000      59.942
  33.3900         43909.000      59.506
  33.4900         43467.000      59.042
  33.5900         44152.000      59.456
  33.6900         44087.000      60.324
  33.7900         44115.000      60.341
  33.8900         43865.000      59.034
  33.9900         44449.000      60.481
  34.0900         44790.000      59.186
  34.1900         44857.000      60.440
  34.2900         44661.000      60.754
  34.3900         44611.000      60.481
  34.4900         44921.000      60.125
  34.5900         44277.000      59.950
  34.6900         44440.000      59.967
  34.7900         44224.000      59.766
  34.8900         44498.000      60.349
  34.9900         44400.000      60.067
  35.0900         44404.000      60.506
  35.1900         44603.000      60.457
  35.2900         44943.000      60.556
  35.3900         45276.000      61.205
  35.4900         45618.000      60.688
  35.5900         46402.000      61.514
  35.6900         47586.000      62.314
  35.7900         48308.000      62.562
  35.8900         51021.000      64.094
  35.9900         53799.000      65.788
  36.0900         58299.000      68.454
  36.1900         64226.000      72.794
  36.2900         70005.000      75.505
  36.3900         71368.000      76.295
  36.4900         68471.000      74.088
  36.5900         63503.000      72.512
  36.6900         57498.000      68.760
  36.7900         53282.000      66.008
  36.8900         50317.000      64.172
  36.9900         48553.000      62.546
  37.0900         47184.000      62.258
  37.1900         46245.000      61.368
  37.2900         45583.000      60.158
  37.3900         45235.000      60.877
  37.4900         44826.000      61.106
  37.5900         44801.000      60.605
  37.6900         44558.000      59.632
  37.7900         44507.000      59.093
  37.8900         44716.000      59.615
  37.9900         44270.000      59.346
  38.0900         44566.000      59.992
  38.1900         44147.000      59.950
  38.2900         44102.000      59.254
  38.3900         43768.000      59.599
  38.4900         43982.000      59.892
  38.5900         44069.000      60.514
  38.6900         44081.000      60.308
  38.7900         44359.000      60.481
  38.8900         43918.000      59.447
  38.9900         44046.000      59.875
  39.0900         44285.000      60.249
  39.1900         43665.000      59.203
  39.2900         44302.000      59.431
  39.3900         44508.000      60.630
  39.4900         44759.000      59.178
  39.5900         44513.000      61.041
  39.6900         44901.000      59.624
  39.7900         44928.000      60.083
  39.8900         44468.000      60.191
  39.9900         44384.000      59.892
  40.0900         43915.000      59.917
  40.1900         44449.000      59.532
  40.2900         44617.000      59.523
  40.3900         44386.000      59.716
  40.4900         44157.000      60.324
  40.5900         44217.000      60.033
  40.6900         44434.000      59.582
  40.7900         44349.000      59.791
  40.8900         44388.000      59.816
  40.9900         44350.000      59.615
  41.0900         44210.000      59.397
  41.1900         44210.000      59.749
  41.2900         44126.000      59.473
  41.3900         44684.000      59.816
  41.4900         45139.000      59.674
  41.5900         44066.000      59.304
  41.6900         44433.000      59.975
  41.7900         44405.000      59.025
  41.8900         44189.000      59.808
  41.9900         44337.000      60.523
  42.0900         44358.000      60.366
  42.1900         44737.000      58.847
  42.2900         44322.000      59.481
  42.3900         44809.000      59.615
  42.4900         44651.000      59.237
  42.5900         43977.000      59.682
  42.6900         44282.000      58.975
  42.7900         44213.000      60.083
  42.8900         44164.000      59.228
  42.9900         44032.000      58.975
  43.0900         44225.000      59.657
  43.1900         44289.000      59.917
  43.2900         43997.000      59.186
  43.3900         44314.000      59.473
  43.4900         44397.000      58.873
  43.5900         44496.000      59.431
  43.6900         44170.000      59.338
  43.7900         44223.000      59.775
  43.8900         44197.000      59.800
  43.9900         44313.000      59.515
  44.0900         44353.000      58.813
  44.1900         44078.000      59.000
  44.2900         44446.000      58.805
  44.3900         44026.000      59.632
  44.4900         44719.000      58.703
  44.5900         44383.000      58.481
  44.6900         44449.000      59.532
  44.7900         44680.000      58.694
  44.8900         44392.000      59.000
  44.9900         44020.000      57.905
  45.0900         44606.000      59.169
  45.1900         43995.000      58.686
  45.2900         44450.000      59.565
  45.3900         44265.000      58.975
  45.4900         44537.000      58.847
  45.5900         44245.000      58.361
  45.6900         44368.000      58.472
  45.7900         44479.000      58.677
  45.8900         44275.000      59.380
  45.9900         44633.000      59.389
  46.0900         44410.000      59.632
  46.1900         44557.000      60.125
  46.2900         44686.000      59.983
  46.3900         44434.000      59.279
  46.4900         44125.000      58.847
  46.5900         44535.000      59.858
  46.6900         44759.000      58.881
  46.7900         44554.000      60.017
  46.8900         44733.000      59.169
  46.9900         44309.000      58.472
  47.0900         44654.000      59.355
  47.1900         45104.000      58.720
  47.2900         44500.000      59.237
  47.3900         44432.000      59.034
  47.4900         44861.000      58.660
  47.5900         45207.000      59.110
  47.6900         45592.000      60.770
  47.7900         46696.000      60.299
  47.8900         47097.000      60.033
  47.9900         46612.000      60.597
  48.0900         45892.000      60.514
  48.1900         44992.000      59.808
  48.2900         45160.000      58.224
  48.3900         44531.000      58.069
  48.4900         44576.000      58.626
  48.5900         44651.000      59.783
  48.6900         44379.000      58.301
  48.7900         44662.000      59.624
  48.8900         44358.000      59.498
  48.9900         44378.000      59.422
  49.0900         44134.000      58.805
  49.1900         44726.000      58.975
  49.2900         44381.000      59.599
  49.3900         44690.000      59.657
  49.4900         44394.000      58.924
  49.5900         44588.000      58.873
  49.6900         44441.000      58.575
  49.7900         44320.000      58.856
  49.8900         44417.000      59.000
  49.9900         44849.000      60.622
  50.0900         44254.000      58.172
  50.1900         44113.000      58.215
  50.2900         44366.000      59.414
  50.3900         44117.000      59.135
  50.4900         44577.000      59.431
  50.5900         44242.000      58.805
  50.6900         44129.000      58.558
  50.7900         44251.000      59.042
  50.8900         44025.000      58.472
  50.9900         44529.000      59.590
  51.0900         44084.000      58.822
  51.1900         44246.000      58.370
  51.2900         44091.000      58.532
  51.3900         44492.000      59.085
  51.4900         44746.000      59.380
  51.5900         44855.000      59.017
  51.6900         45194.000      59.489
  51.7900         45371.000      59.867
  51.8900         46629.000      61.254
  51.9900         47793.000      61.685
  52.0900         50570.000      63.514
  52.1900         53578.000      64.823
  52.2900         56903.000      68.315
  52.3900         58579.000      69.304
  52.4900         58030.000      68.257
  52.5900         56218.000      66.234
  52.6900         52634.000      64.506
  52.7900         49235.000      62.578
  52.8900         47155.000      59.867
  52.9900         45818.000      60.008
  53.0900         45204.000      60.000
  53.1900         44583.000      58.352
  53.2900         44243.000      58.703
  53.3900         44293.000      59.068
  53.4900         44717.000      58.754
  53.5900         44471.000      59.110
  53.6900         43801.000      58.378
  53.7900         44164.000      58.532
  53.8900         43567.000      59.389
  53.9900         43917.000      58.720
  54.0900         43745.000      57.758
  54.1900         43625.000      58.898
  54.2900         43959.000      60.200
  54.3900         43823.000      58.438
  54.4900         43854.000      58.395
  54.5900         44213.000      59.313
  54.6900         43373.000      58.983
  54.7900         43676.000      58.395
  54.8900         44262.000      58.541
  54.9900         44083.000      59.355
  55.0900         44104.000      58.924
  55.1900         43980.000      58.796
  55.2900         44331.000      59.313
  55.3900         43767.000      58.275
  55.4900         43479.000      59.211
  55.5900         43497.000      58.907
  55.6900         43733.000      58.669
  55.7900         43487.000      58.455
  55.8900         43763.000      58.464
  55.9900         43528.000      59.203
  56.0900         43697.000      59.296
  56.1900         43711.000      59.228
  56.2900         43734.000      59.783
  56.3900         43699.000      59.699
  56.4900         43470.000      58.335
  56.5900         44031.000      59.565
  56.6900         43709.000      59.042
  56.7900         43848.000      58.095
  56.8900         43650.000      58.660
  56.9900         43300.000      58.728
  57.0900         43466.000      58.532
  57.1900         43481.000      58.198
  57.2900         43386.000      58.703
  57.3900         43379.000      58.009
  57.4900         43577.000      59.733
  57.5900         43477.000      58.532
  57.6900         43428.000      58.669
  57.7900         43328.000      57.914
  57.8900         43320.000      59.254
  57.9900         43334.000      58.728
  58.0900         43659.000      58.472
  58.1900         43062.000      58.344
  58.2900         43498.000      58.762
  58.3900         43325.000      59.599
  58.4900         43214.000      58.822
  58.5900         43192.000      58.086
  58.6900         43792.000      58.412
  58.7900         43673.000      59.152
  58.8900         43615.000      59.262
  58.9900         43734.000      58.745
  59.0900         43393.000      58.086
  59.1900         43644.000      59.313
  59.2900         43771.000      59.161
  59.3900         43600.000      59.102
  59.4900         43909.000      58.779
  59.5900         43442.000      59.059
  59.6900         43468.000      59.582
  59.7900         44034.000      58.481
  59.8900         43576.000      58.822
  59.9900         43442.000      59.119
  60.0900         43702.000      58.541
  60.1900         43495.000      58.241
  60.2900         43755.000      59.649
  60.3900         43584.000      59.682
  60.4900         44130.000      59.456
  60.5900         43738.000      58.703
  60.6900         43665.000      59.059
  60.7900         43805.000      58.498
  60.8900         44094.000      57.940
  60.9900         43780.000      59.042
  61.0900         44333.000      59.186
  61.1900         44499.000      59.186
  61.2900         44990.000      59.908
  61.3900         45522.000      60.622
  61.4900         46496.000      60.647
  61.5900         47201.000      61.539
  61.6900         48693.000      61.871
  61.7900         50201.000      63.301
  61.8900         52440.000      64.946
  61.9900         55565.000      67.735
  62.0900         59131.000      68.957
  62.1900         62006.000      71.302
  62.2900         64711.000      72.381
  62.3900         65215.000      72.443
  62.4900         64786.000      70.767
  62.5900         62649.000      71.972
  62.6900         58732.000      69.072
  62.7900         55895.000      66.873
  62.8900         52605.000      64.630
  62.9900         50194.000      62.626
  63.0900         48264.000      62.338
  63.1900         47236.000      61.782
  63.2900         45993.000      60.811
  63.3900         45720.000      60.572
  63.4900         45422.000      60.762
  63.5900         44978.000      59.599
  63.6900         45407.000      60.745
  63.7900         45184.000      60.778
  63.8900         45414.000      60.150
  63.9900         46066.000      60.390
  64.0900         46360.000      61.498
  64.1900         46595.000      61.644
  64.2900         48157.000      62.089
  64.3900         49326.000      62.714
  64.4900         50732.000      64.055
  64.5900         53913.000      66.618
  64.6900         59208.000      69.109
  64.7900         67067.000      73.838
  64.8900         77322.000      79.668
  64.9900         90269.000      85.627
  65.0900        105401.000      93.183
  65.1900        120221.000      99.880
  65.2900        134960.000     105.660
  65.3900        144353.000     108.600
  65.4900        149230.000     111.812
  65.5900        145273.000     109.631
  65.6900        136235.000     107.163
  65.7900        122199.000      99.960
  65.8900        106576.000      94.005
  65.9900         90591.000      85.662
  66.0900         76574.000      79.126
  66.1900         65725.000      73.702
  66.2900         58684.000      69.029
  66.3900         53436.000      66.068
  66.4900         51188.000      64.692
  66.5900         48965.000      61.514
  66.6900         47255.000      62.056
  66.7900         46339.000      61.741
  66.8900         45755.000      61.221
  66.9900         44966.000      61.033
  67.0900         44118.000      60.092
  67.1900         43924.000      59.330
  67.2900         43857.000      59.473
  67.3900         43799.000      59.883
  67.4900         44064.000      59.858
  67.5900         43657.000      59.059
  67.6900         43806.000      59.330
  67.7900         43887.000      59.135
  67.8900         43955.000      59.682
  67.9900         43648.000      59.271
  68.0900         43473.000      59.632
  68.1900         43323.000      58.686
  68.2900         42638.000      58.856
  68.3900         42261.000      58.043
  68.4900         42079.000      58.847
  68.5900         42107.000      58.121
  68.6900         41930.000      57.411
  68.7900         42108.000      58.086
  68.8900         41817.000      57.905
  68.9900         41968.000      58.558
  69.0900         42107.000      57.559
  69.1900         41787.000      57.236
  69.2900         42082.000      57.922
  69.3900         41928.000      58.566
  69.4900         41883.000      58.026
  69.5900         41430.000      58.138
  69.6900         41463.000      57.801
  69.7900         41598.000      57.758
  69.8900         41666.000      58.344
  69.9900         41898.000      58.472
  70.0900         41359.000      57.628
  70.1900         41389.000      57.680
  70.2900         41692.000      58.121
  70.3900         41351.000      58.592
  70.4900         41522.000      56.771
  70.5900         41449.000      57.376
  70.6900         41258.000      58.301
  70.7900         41257.000      57.026
  70.8900         41252.000      58.404
  70.9900         41779.000      57.853
  71.0900         42010.000      58.155
  71.1900         41823.000      58.652
  71.2900         41539.000      57.576
  71.3900         42078.000      58.232
  71.4900         42684.000      58.626
  71.5900         43394.000      59.506
  71.6900         43397.000      59.195
  71.7900         44665.000      60.175
  71.8900         45150.000      59.464
  71.9900         45067.000      60.308
  72.0900         45571.000      60.382
  72.1900         45722.000      60.943
  72.2900         45932.000      60.291
  72.3900         46025.000      60.457
  72.4900         45228.000      59.749
  72.5900         45334.000      60.457
  72.6900         44482.000      60.622
  72.7900         44570.000      59.532
  72.8900         43454.000      59.110
  72.9900         43105.000      57.888
  73.0900         42850.000      58.958
  73.1900         42502.000      58.566
  73.2900         41898.000      57.280
  73.3900         42190.000      57.983
  73.4900         42215.000      57.533
  73.5900         42007.000      57.663
  73.6900         42191.000      57.611
  73.7900         42268.000      59.338
  73.8900         42436.000      58.728
  73.9900         42170.000      58.754
  74.0900         42126.000      57.758
  74.1900         42834.000      59.102
  74.2900         43193.000      58.489
  74.3900         43974.000      59.632
  74.4900         44949.000      60.819
  74.5900         46728.000      61.547
  74.6900         48667.000      62.522
  74.7900         50559.000      62.825
  74.8900         52896.000      65.261
  74.9900         55061.000      66.483
  75.0900         56368.000      67.045
  75.1900         58624.000      68.819
  75.2900         59664.000      69.527
  75.3900         60528.000      70.597
  75.4900         60419.000      70.541
  75.5900         59323.000      69.101
  75.6900         57861.000      68.615
  75.7900         56151.000      68.037
  75.8900         54954.000      66.393
  75.9900         53512.000      65.315
  76.0900         53259.000      66.000
  76.1900         53307.000      66.310
  76.2900         55682.000      66.678
  76.3900         59793.000      69.663
  76.4900         66433.000      72.870
  76.5900         73926.000      77.962
  76.6900         83632.000      83.241
  76.7900         94347.000      88.148
  76.8900        105914.000      92.844
  76.9900        118030.000      98.468
  77.0900        126990.000     102.908
  77.1900        135212.000     105.873
  77.2900        138529.000     107.373
  77.3900        137630.000     106.593
  77.4900        132076.000     105.067
  77.5900        123880.000     101.553
  77.6900        113964.000      96.917
  77.7900        101355.000      91.203
  77.8900         89893.000      85.452
  77.9900         78204.000      80.112
  78.0900         68210.000      74.471
  78.1900         61031.000      69.979
  78.2900         56053.000      67.350
  78.3900         51552.000      64.062
  78.4900         49520.000      63.608
  78.5900         46992.000      60.951
  78.6900         46248.000      61.351
  78.7900         44913.000      59.135
  78.8900         43834.000      59.816
  78.9900         43248.000      58.975
  79.0900         43248.000      59.540
  79.1900         42845.000      58.207
  79.2900         42462.000      57.871
  79.3900         42647.000      58.138
  79.4900         42269.000      57.775
  79.5900         42249.000      58.558
  79.6900         41542.000      57.896
  79.7900         41581.000      56.780
  79.8900         41451.000      58.352
  79.9900         41231.000      58.387
  80.0900         40840.000      56.692
  80.1900         41155.000      58.026
  80.2900         40571.000      56.489
  80.3900         40706.000      56.912
  80.4900         40355.000      56.569
  80.5900         39968.000      57.131
  80.6900         40290.000      56.515
  80.7900         40258.000      57.035
  80.8900         39680.000      56.125
  80.9900         40050.000      56.267
  81.0900         39986.000      56.719
  81.1900         39665.000      56.045
  81.2900         40078.000      57.315
  81.3900         39609.000      56.595
  81.4900         39820.000      56.833
  81.5900         39822.000      55.660
  81.6900         39848.000      57.026
  81.7900         39774.000      56.391
  81.8900         39853.000      56.205
  81.9900         39901.000      56.886
  82.0900         39576.000      56.683
  82.1900         39346.000      56.498
  82.2900         39665.000      55.946
  82.3900         39987.000      57.009
  82.4900         39956.000      57.446
  82.5900         39793.000      56.214
  82.6900         39925.000      57.096
  82.7900         39563.000      55.830
  82.8900         39679.000      56.921
  82.9900         39956.000      55.937
  83.0900         39560.000      57.114
  83.1900         40339.000      56.249
  83.2900         39799.000      56.187
  83.3900         39733.000      57.498
  83.4900         39852.000      56.409
  83.5900         39854.000      57.175
  83.6900         39722.000      55.866
  83.7900         39882.000      57.732
  83.8900         39791.000      57.210
  83.9900         39904.000      55.696
  84.0900         39542.000      57.576
  84.1900         39822.000      56.365
  84.2900         40295.000      57.367
  84.3900         40115.000      56.365
  84.4900         40783.000      57.454
  84.5900         40894.000      57.905
  84.6900         41602.000      57.801
  84.7900         42382.000      58.215
  84.8900         42470.000      58.728
  84.9900         44018.000      60.083
  85.0900         45183.000      59.724
  85.1900         46275.000      61.806
  85.2900         47238.000      62.241
  85.3900         48483.000      62.161
  85.4900         49379.000      63.757
  85.5900         50446.000      64.854
  85.6900         51006.000      64.552
  85.7900         51263.000      64.101
  85.8900         50740.000      63.844
  85.9900         50543.000      63.906
  86.0900         49476.000      63.624
  86.1900         47965.000      61.343
  86.2900         47444.000      62.217
  86.3900         45870.000      60.473
  86.4900         44654.000      60.332
  86.5900         43695.000      58.720
  86.6900         42567.000      58.370
  86.7900         41824.000      57.845
  86.8900         41181.000      57.359
  86.9900         40861.000      57.576
  87.0900         40565.000      57.393
  87.1900         40441.000      56.391
  87.2900         41232.000      56.842
  87.3900         40643.000      56.604
  87.4900         40940.000      58.198
  87.5900         41460.000      57.341
  87.6900         41351.000      57.105
  87.7900         42369.000      59.228
  87.8900         42244.000      58.284
  87.9900         42891.000      58.864
  88.0900         43908.000      59.321
  88.1900         44339.000      60.075
  88.2900         45742.000      60.655
  88.3900         46420.000      60.975
  88.4900         47560.000      61.335
  88.5900         48003.000      62.266
  88.6900         48277.000      62.602
  88.7900         49104.000      63.969
  88.8900         49883.000      63.467
  88.9900         49556.000      63.844
  89.0900         50371.000      64.467
  89.1900         50396.000      64.892
  89.2900         50867.000      64.273
  89.3900         51137.000      63.553
  89.4900         51631.000      64.800
  89.5900         52094.000      64.730
  89.6900         52010.000      64.962
  89.7900         52130.000      65.054
  89.8900         51340.000      65.253
  89.9900         50933.000      64.692
  90.0900         49614.000      63.616
  90.1900         49071.000      63.127
  90.2900         48101.000      63.111
  90.3900         46948.000      62.073
  90.4900         45467.000      60.440
  90.5900         44531.000      60.622
  90.6900         43552.000      58.983
  90.7900         42462.000      59.195
  90.8900         41731.000      57.922
  90.9900         41525.000      58.335
  91.0900         40997.000      57.175
  91.1900         40148.000      57.628
  91.2900         40276.000      56.267
  91.3900         39818.000      56.454
  91.4900         39588.000      56.577
  91.5900         39401.000      56.329
  91.6900         39104.000      56.000
  91.7900         39072.000      56.400
  91.8900         38742.000      55.902
  91.9900         39087.000      56.683
  92.0900         38825.000      55.218
  92.1900         39035.000      55.227
  92.2900         38891.000      56.098
  92.3900         39028.000      55.299
  92.4900         38562.000      55.731
  92.5900         38650.000      56.169
  92.6900         38792.000      56.054
  92.7900         38538.000      55.200
  92.8900         38838.000      55.982
  92.9900         38556.000      55.758
  93.0900         38595.000      55.055
  93.1900         38955.000      56.727
  93.2900         38658.000      55.209
  93.3900         38552.000      55.660
  93.4900         38934.000      55.426
  93.5900         38458.000      55.290
  93.6900         38519.000      54.827
  93.7900         38560.000      55.624
  93.8900         38678.000      56.859
  93.9900         38773.000      56.036
  94.0900         38500.000      55.714
  94.1900         38465.000      56.018
  94.2900         38018.000      55.579
  94.3900         39013.000      55.839
  94.4900         38666.000      55.848
  94.5900         38834.000      55.516
  94.6900         38604.000      55.516
  94.7900         38460.000      55.982
  94.8900         38469.000      54.461
  94.9900         38616.000      55.651
  95.0900         38331.000      55.435
  95.1900         38645.000      56.356
  95.2900         38429.000      55.118
  95.3900         38390.000      55.498
  95.4900         38262.000      55.154
  95.5900         38546.000      55.830
  95.6900         38484.000      55.570
  95.7900         38513.000      56.054
  95.8900         39063.000      55.498
  95.9900         38678.000      55.399
  96.0900         39197.000      55.669
  96.1900         39065.000      56.409
  96.2900         38974.000      56.214
  96.3900         38717.000      55.893
  96.4900         38960.000      56.294
  96.5900         39120.000      56.807
  96.6900         38712.000      56.241
  96.7900         39226.000      56.859
  96.8900         38900.000      55.444
  96.9900         38747.000      55.344
  97.0900         38359.000      55.749
  97.1900         38126.000      55.027
  97.2900         38549.000      56.507
  97.3900         38003.000      55.045
  97.4900         38367.000      55.543
  97.5900         38254.000      55.444
  97.6900         38293.000      55.353
  97.7900         38313.000      55.758
  97.8900         38644.000      55.937
  97.9900         38312.000      55.489
  98.0900         38110.000      55.399
  98.1900         38572.000      55.758
  98.2900         38254.000      55.154
  98.3900         38847.000      55.821
  98.4900         38440.000      55.642
  98.5900         38575.000      56.285
  98.6900         38730.000      56.062
  98.7900         38654.000      55.399
  98.8900         38951.000      55.839
  98.9900         39152.000      56.763
  99.0900         39352.000      55.776
  99.1900         39485.000      56.116
  99.2900         39711.000      57.158
  99.3900         39840.000      56.701
  99.4900         40264.000      56.771
  99.5900         40303.000      56.312
  99.6900         40931.000      57.983
  99.7900         40647.000      57.715
  99.8900         41076.000      57.645
  99.9900         41125.000      57.767
 100.0900         40919.000      58.438
 100.1900         41110.000      58.095
 100.2900         40746.000      56.807
 100.3900         40050.000      57.905
 100.4900         39862.000      57.158
 100.5900         40068.000      56.125
 100.6900         39572.000      56.842
 100.7900         39020.000      55.911
 100.8900         38787.000      55.731
 100.9900         39001.000      56.276
 101.0900         38942.000      56.169
 101.1900         38567.000      55.857
 101.2900         38489.000      55.381
 101.3900         38257.000      54.845
 101.4900         38307.000      55.552
 101.5900         38072.000      54.653
 101.6900         38482.000      56.763
 101.7900         38600.000      55.182
 101.8900         38306.000      55.911
 101.9900         38229.000      55.263
 102.0900         38359.000      54.809
 102.1900         38525.000      55.929
 102.2900         38357.000      55.911
 102.3900         38671.000      55.597
 102.4900         38516.000      56.036
 102.5900         38438.000      55.597
 102.6900         38283.000      55.606
 102.7900         38417.000      55.498
 102.8900         38609.000      55.263
 102.9900         38535.000      55.570
 103.0900         38036.000      56.196
 103.1900         38067.000      55.200
 103.2900         38287.000      55.263
 103.3900         38019.000      54.608
 103.4900         38126.000      55.154
 103.5900         38324.000      55.326
 103.6900         38378.000      55.145
 103.7900         38590.000      55.794
 103.8900         38358.000      55.534
 103.9900         38342.000      55.731
 104.0900         38087.000      55.884
 104.1900         38278.000      55.308
 104.2900         38485.000      56.054
 104.3900         38717.000      56.054
 104.4900         38576.000      55.127
 104.5900         38377.000      55.588
 104.6900         38474.000      56.267
 104.7900         38481.000      55.453
 104.8900         38234.000      54.479
 104.9900         38730.000      56.418
 105.0900         38494.000      55.884
 105.1900         38762.000      56.533
 105.2900         38625.000      55.767
 105.3900         38925.000      55.776
 105.4900         38786.000      56.489
 105.5900         39036.000      56.586
 105.6900         38783.000      55.516
 105.7900         39060.000      56.383
 105.8900         39416.000      55.480
 105.9900         39379.000      56.542
 106.0900         40060.000      57.341
 106.1900         40002.000      56.886
 106.2900         40325.000      57.585
 106.3900         40670.000      58.232
 106.4900         41073.000      57.524
 106.5900         41498.000      57.983
 106.6900         43478.000      58.541
 106.7900         43807.000      59.152
 106.8900         45547.000      61.205
 106.9900         47136.000      62.258
 107.0900         49209.000      63.655
 107.1900         50966.000      64.459
 107.2900         53021.000      64.969
 107.3900         55580.000      67.520
 107.4900         57789.000      69.699
 107.5900         61094.000      70.838
 107.6900         63803.000      72.409
 107.7900         66374.000      73.695
 107.8900         69281.000      75.253
 107.9900         72162.000      77.311
 108.0900         74028.000      78.077
 108.1900         75413.000      78.313
 108.2900         77661.000      80.405
 108.3900         78540.000      79.844
 108.4900         78278.000      80.449
 108.5900         77428.000      80.498
 108.6900         76480.000      79.624
 108.7900         74926.000      78.626
 108.8900         72509.000      76.629
 108.9900         70213.000      76.446
 109.0900         67637.000      74.626
 109.1900         64337.000      72.049
 109.2900         61382.000      71.211
 109.3900         58814.000      68.986
 109.4900         56612.000      67.838
 109.5900         53485.000      66.543
 109.6900         51923.000      64.846
 109.7900         49373.000      63.561
 109.8900         47338.000      62.378
 109.9900         45865.000      62.185
 110.0900         44004.000      60.564
 110.1900         42648.000      59.102
 110.2900         41863.000      58.472
 110.3900         41326.000      57.524
 110.4900         40667.000      57.767
 110.5900         40576.000      57.385
 110.6900         39648.000      56.991
 110.7900         39634.000      56.877
 110.8900         39102.000      56.152
 110.9900         39130.000      56.436
 111.0900         38721.000      56.551
 111.1900         38591.000      56.771
 111.2900         38884.000      55.946
 111.3900         38211.000      55.749
 111.4900         38571.000      55.696
 111.5900         38386.000      55.615
 111.6900         38278.000      55.127
 111.7900         38207.000      55.955
 111.8900         38373.000      55.687
 111.9900         38074.000      55.516
 112.0900         38720.000      56.178
 112.1900         38396.000      55.785
 112.2900         38131.000      55.516
 112.3900         38157.000      56.930
 112.4900         38508.000      56.045
 112.5900         38558.000      55.191
 112.6900         38698.000      55.669
 112.7900         38584.000      56.045
 112.8900         38139.000      56.303
 112.9900         38632.000      55.776
 113.0900         38924.000      56.956
 113.1900         38611.000      55.408
 113.2900         38722.000      56.196
 113.3900         38842.000      56.771
 113.4900         38505.000      55.740
 113.5900         38731.000      55.462
 113.6900         38580.000      55.785
 113.7900         38300.000      55.875
 113.8900         38732.000      55.929
 113.9900         38466.000      56.054
 114.0900         38122.000      54.653
 114.1900         38374.000      56.454
 114.2900         37931.000      55.127
 114.3900         37985.000      55.785
 114.4900         37754.000      55.109
 114.5900         37724.000      55.317
 114.6900         37966.000      55.920
 114.7900         37572.000      55.570
 114.8900         37737.000      55.335
 114.9900         37236.000      55.830
 115.0900         37558.000      54.863
 115.1900         37210.000      54.000
 115.2900         37521.000      54.717
 115.3900         36921.000      54.387
 115.4900         37288.000      54.498
 115.5900         37174.000      54.626
 115.6900         37078.000      54.791
 115.7900         37216.000      54.387
 115.8900         37076.000      54.936
 115.9900         37114.000      54.909
 116.0900         36933.000      54.286
 116.1900         37430.000      54.772
 116.2900         37138.000      54.717
 116.3900         36743.000      54.507
 116.4900         37442.000      55.000
 116.5900         37166.000      54.617
 116.6900         37126.000      54.781
 116.7900         37011.000      55.055
 116.8900         37187.000      54.818
 116.9900         37519.000      54.028
 117.0900         37096.000      54.927
 117.1900         36787.000      54.754
 117.2900         37115.000      54.185
 117.3900         37027.000      54.553
 117.4900         37284.000      55.669
 117.5900         37021.000      55.064
 117.6900         37311.000      55.100
 117.7900         37143.000      54.800
 117.8900         36975.000      55.045
 117.9900         37127.000      55.027
 118.0900         36911.000      54.589
 118.1900         37110.000      54.626
 118.2900         37282.000      55.848
 118.3900         36740.000      55.172
 118.4900         37332.000      55.100
 118.5900         37125.000      55.036
 118.6900         37266.000      55.381
 118.7900         37297.000      55.839
 118.8900         37323.000      55.045
 118.9900         37518.000      54.745
 119.0900         37031.000      54.854
 119.1900         37619.000      54.882
 119.2900         37334.000      55.136
 119.3900         37797.000      54.791
 119.4900         37367.000      55.091
 119.5900         37675.000      54.982
 119.6900         37373.000      55.055
 119.7900         37492.000      54.991
 119.8900         37974.000      56.604
 119.9900         37776.000      55.390
 120.0900         37889.000      55.615
 120.1900         38373.000      55.660
 120.2900         37990.000      55.669
 120.3900         38315.000      55.973
 120.4900         38857.000      56.178
 120.5900         38750.000      56.400
 120.6900         39042.000      55.615
 120.7900         39172.000      55.812
 120.8900         39493.000      57.018
 120.9900         39874.000      57.088
 121.0900         40639.000      57.158
 121.1900         41127.000      58.009
 121.2900         41425.000      58.830
 121.3900         42678.000      59.338
 121.4900         43911.000      61.106
 121.5900         45049.000      60.860
 121.6900         46863.000      60.975
 121.7900         48599.000      63.325
 121.8900         50919.000      64.195
 121.9900         53303.000      66.895
 122.0900         56235.000      67.216
 122.1900         59002.000      69.757
 122.2900         61884.000      71.596
 122.3900         65092.000      72.870
 122.4900         69101.000      76.020
 122.5900         72727.000      77.563
 122.6900         77524.000      80.784
 122.7900         82026.000      82.873
 122.8900         86357.000      84.006
 122.9900         90691.000      86.232
 123.0900         95313.000      88.561
 123.1900        100305.000      91.154
 123.2900        105272.000      93.627
 123.3900        109861.000      94.689
 123.4900        114561.000      97.103
 123.5900        118983.000      99.740
 123.6900        122087.000     100.399
 123.7900        125691.000     101.912
 123.8900        127839.000     103.639
 123.9900        129829.000     103.846
 124.0900        131101.000     104.465
 124.1900        129968.000     104.350
 124.2900        129744.000     103.957
 124.3900        127668.000     101.509
 124.4900        126030.000     101.153
 124.5900        122868.000     100.960
 124.6900        119006.000      99.333
 124.7900        113930.000      96.385
 124.8900        109823.000      94.594
 124.9900        105279.000      92.747
 125.0900        100230.000      90.945
 125.1900         95997.000      89.135
 125.2900         91011.000      86.885
 125.3900         86066.000      84.238
 125.4900         82733.000      81.737
 125.5900         77371.000      79.549
 125.6900         73046.000      77.762
 125.7900         69018.000      74.653
 125.8900         65621.000      72.945
 125.9900         61642.000      70.548
 126.0900         58552.000      70.107
 126.1900         55543.000      67.313
 126.2900         52622.000      66.940
 126.3900         50928.000      64.179
 126.4900         48810.000      63.246
 126.5900         46903.000      61.156
 126.6900         45841.000      61.082
 126.7900         45260.000      60.729
 126.8900         43852.000      60.581
 126.9900         43012.000      58.558
 127.0900         42322.000      58.472
 127.1900         41426.000      58.566
 127.2900         41236.000      57.515
 127.3900         40567.000      57.576
 127.4900         40153.000      57.515
 127.5900         39611.000      56.489
 127.6900         39171.000      55.830
 127.7900         38923.000      55.100
 127.8900         38489.000      55.597
 127.9900         37943.000      55.073
 128.0900         38035.000      55.982
 128.1900         37715.000      54.909
 128.2900         37526.000      54.836
 128.3900         38093.000      56.187
 128.4900         37669.000      55.471
 128.5900             4.000       1.000
 128.6900             7.000       1.414
