XYDATA SparksLave Co3O4-quenched_550_1.5K 
INTER        1       1       0     0.100000
TEMP       1.60620      1.67620      1.50000
! d1b Date 14-Nov-11 Time 01:20:45 Run 129902 129889>129902
! d1b Date 14-Nov-11 Time 01:20:45 Run 129902 129889>129902
! Monitor/counts, Counting time/sec:  1.27389e+007 1.27389e+007
   0.7900            10.000       1.000
   0.8900             9.000       1.000
   0.9900          2318.000      13.229
   1.0900          2351.000      13.153
   1.1900          2283.000      12.845
   1.2900          2283.000      11.576
   1.3900          2258.000      11.832
   1.4900          2341.000      12.207
   1.5900          2341.000      12.961
   1.6900          2558.000      13.638
   1.7900          3138.000      15.033
   1.8900          4846.000      18.055
   1.9900          7876.000      23.854
   2.0900         10656.000      26.665
   2.1900         13273.000      30.854
   2.2900         16774.000      34.511
   2.3900         21162.000      38.393
   2.4900         25875.000      42.708
   2.5900         30481.000      46.562
   2.6900         34377.000      49.850
   2.7900         38075.000      52.555
   2.8900         41278.000      54.544
   2.9900         44955.000      56.454
   3.0900         48282.000      58.915
   3.1900         50984.000      60.762
   3.2900         52767.000      61.147
   3.3900         53734.000      61.074
   3.4900         52801.000      61.408
   3.5900         51810.000      61.245
   3.6900         51529.000      60.249
   3.7900         50624.000      60.440
   3.8900         49382.000      60.191
   3.9900         51153.000      60.877
   4.0900         50896.000      60.216
   4.1900         50135.000      59.414
   4.2900         50394.000      60.316
   4.3900         50681.000      60.158
   4.4900         51336.000      60.671
   4.5900         53234.000      62.073
   4.6900         55428.000      61.976
   4.7900         58017.000      63.937
   4.8900         60207.000      65.795
   4.9900         62882.000      66.970
   5.0900         64892.000      68.308
   5.1900         67303.000      69.592
   5.2900         69793.000      70.470
   5.3900         71559.000      71.561
   5.4900         73525.000      71.951
   5.5900         75867.000      74.364
   5.6900         77739.000      74.920
   5.7900         79508.000      74.813
   5.8900         81832.000      76.772
   5.9900         83594.000      76.681
   6.0900         84604.000      77.156
   6.1900         85289.000      78.428
   6.2900         85416.000      77.279
   6.3900         84301.000      78.230
   6.4900         84360.000      77.685
   6.5900         83359.000      77.026
   6.6900         83422.000      76.909
   6.7900         82389.000      76.145
   6.8900         82455.000      76.426
   6.9900         82111.000      75.697
   7.0900         80784.000      75.967
   7.1900         79679.000      74.907
   7.2900         79109.000      74.639
   7.3900         78097.000      73.926
   7.4900         76802.000      73.865
   7.5900         75446.000      73.007
   7.6900         75345.000      72.305
   7.7900         74336.000      72.938
   7.8900         72778.000      71.757
   7.9900         71990.000      71.533
   8.0900         70566.000      70.264
   8.1900         70049.000      70.753
   8.2900         69461.000      70.915
   8.3900         68256.000      69.929
   8.4900         67021.000      69.072
   8.5900         65858.000      68.345
   8.6900         65264.000      68.088
   8.7900         64003.000      66.843
   8.8900         62628.000      66.506
   8.9900         62020.000      66.083
   9.0900         61317.000      66.295
   9.1900         60009.000      65.628
   9.2900         59562.000      65.123
   9.3900         58309.000      64.568
   9.4900         57015.000      63.585
   9.5900         56395.000      63.032
   9.6900         55026.000      62.944
   9.7900         53893.000      61.343
   9.8900         52827.000      61.196
   9.9900         52609.000      61.968
  10.0900         51049.000      60.233
  10.1900         50109.000      59.237
  10.2900         49524.000      59.397
  10.3900         48794.000      58.549
  10.4900         48366.000      57.793
  10.5900         47499.000      57.741
  10.6900         46470.000      57.480
  10.7900         46350.000      57.219
  10.8900         45711.000      56.400
  10.9900         44861.000      55.597
  11.0900         45142.000      55.893
  11.1900         44603.000      56.285
  11.2900         44746.000      56.956
  11.3900         44235.000      55.615
  11.4900         44464.000      57.324
  11.5900         44485.000      55.588
  11.6900         44778.000      55.669
  11.7900         44556.000      56.089
  11.8900         44570.000      56.365
  11.9900         44151.000      55.911
  12.0900         44354.000      56.223
  12.1900         43863.000      56.489
  12.2900         43820.000      56.249
  12.3900         44290.000      56.071
  12.4900         44609.000      55.749
  12.5900         44075.000      56.214
  12.6900         43754.000      54.489
  12.7900         44470.000      56.736
  12.8900         44487.000      55.991
  12.9900         43848.000      55.390
  13.0900         43873.000      56.258
  13.1900         44411.000      57.018
  13.2900         44208.000      56.338
  13.3900         43945.000      55.624
  13.4900         43636.000      56.383
  13.5900         43677.000      55.371
  13.6900         43772.000      55.525
  13.7900         43836.000      56.436
  13.8900         44116.000      56.276
  13.9900         44190.000      55.749
  14.0900         43916.000      56.347
  14.1900         43898.000      55.982
  14.2900         43831.000      56.312
  14.3900         44026.000      56.445
  14.4900         44036.000      56.098
  14.5900         43661.000      54.836
  14.6900         43779.000      54.580
  14.7900         44138.000      55.027
  14.8900         44130.000      56.329
  14.9900         43912.000      55.561
  15.0900         43822.000      55.633
  15.1900         45017.000      56.480
  15.2900         45562.000      57.402
  15.3900         45916.000      57.026
  15.4900         46107.000      56.692
  15.5900         45996.000      57.166
  15.6900         44879.000      56.027
  15.7900         44134.000      55.172
  15.8900         43793.000      55.794
  15.9900         43730.000      55.516
  16.0900         44104.000      55.036
  16.1900         43396.000      54.836
  16.2900         43537.000      55.317
  16.3900         43833.000      55.991
  16.4900         44281.000      55.633
  16.5900         44163.000      55.893
  16.6900         44084.000      55.444
  16.7900         43913.000      56.267
  16.8900         44148.000      56.515
  16.9900         43831.000      55.920
  17.0900         43962.000      56.303
  17.1900         43847.000      55.588
  17.2900         43705.000      55.317
  17.3900         43766.000      55.018
  17.4900         44277.000      55.453
  17.5900         44104.000      56.604
  17.6900         44741.000      56.533
  17.7900         45208.000      55.570
  17.8900         45433.000      56.895
  17.9900         45409.000      57.324
  18.0900         44568.000      55.866
  18.1900         44652.000      56.471
  18.2900         44126.000      56.160
  18.3900         43955.000      56.258
  18.4900         44374.000      56.489
  18.5900         44195.000      56.365
  18.6900         44242.000      54.964
  18.7900         44373.000      56.445
  18.8900         44377.000      55.812
  18.9900         44178.000      56.480
  19.0900         43818.000      55.660
  19.1900         43849.000      56.036
  19.2900         44480.000      56.356
  19.3900         43965.000      55.516
  19.4900         44252.000      55.552
  19.5900         44061.000      55.381
  19.6900         44050.000      55.353
  19.7900         44255.000      55.570
  19.8900         44186.000      55.435
  19.9900         44082.000      56.542
  20.0900         44232.000      57.044
  20.1900         44609.000      56.178
  20.2900         44826.000      56.089
  20.3900         44102.000      55.911
  20.4900         44218.000      55.362
  20.5900         44771.000      56.427
  20.6900         44934.000      56.859
  20.7900         44816.000      56.586
  20.8900         44631.000      56.071
  20.9900         44637.000      55.830
  21.0900         44484.000      56.107
  21.1900         44500.000      55.696
  21.2900         44738.000      56.329
  21.3900         44544.000      55.973
  21.4900         44243.000      55.082
  21.5900         44408.000      55.687
  21.6900         44250.000      56.071
  21.7900         44587.000      56.152
  21.8900         44324.000      56.071
  21.9900         44649.000      55.335
  22.0900         44088.000      54.982
  22.1900         44444.000      55.516
  22.2900         44550.000      55.570
  22.3900         44578.000      55.794
  22.4900         44894.000      56.921
  22.5900         44430.000      54.845
  22.6900         44310.000      56.815
  22.7900         44563.000      55.335
  22.8900         44779.000      56.187
  22.9900         44662.000      55.893
  23.0900         44827.000      56.276
  23.1900         44489.000      56.507
  23.2900         44584.000      56.160
  23.3900         44481.000      55.946
  23.4900         44676.000      56.524
  23.5900         44395.000      55.794
  23.6900         44843.000      55.839
  23.7900         45029.000      56.480
  23.8900         45227.000      56.489
  23.9900         45054.000      56.507
  24.0900         45009.000      56.604
  24.1900         44881.000      56.098
  24.2900         44874.000      56.683
  24.3900         44227.000      55.633
  24.4900         44968.000      56.569
  24.5900         44999.000      56.312
  24.6900         44981.000      56.939
  24.7900         44595.000      54.891
  24.8900         44775.000      55.471
  24.9900         44845.000      55.812
  25.0900         45179.000      57.376
  25.1900         44886.000      56.214
  25.2900         45378.000      56.098
  25.3900         45721.000      55.839
  25.4900         45556.000      56.824
  25.5900         45503.000      56.692
  25.6900         45193.000      56.745
  25.7900         45444.000      56.622
  25.8900         45233.000      55.136
  25.9900         45327.000      56.365
  26.0900         45560.000      56.391
  26.1900         45972.000      57.070
  26.2900         45452.000      56.533
  26.3900         45293.000      56.427
  26.4900         45289.000      56.285
  26.5900         45790.000      56.903
  26.6900         45234.000      56.648
  26.7900         45430.000      56.745
  26.8900         44819.000      56.542
  26.9900         45764.000      56.383
  27.0900         45653.000      56.498
  27.1900         45343.000      55.937
  27.2900         45949.000      57.140
  27.3900         45653.000      56.462
  27.4900         46014.000      56.886
  27.5900         45851.000      56.000
  27.6900         45538.000      54.882
  27.7900         46033.000      57.541
  27.8900         45484.000      56.347
  27.9900         45944.000      56.657
  28.0900         45770.000      57.096
  28.1900         46037.000      56.745
  28.2900         46046.000      57.454
  28.3900         45969.000      57.559
  28.4900         46117.000      58.034
  28.5900         46034.000      56.939
  28.6900         46031.000      56.798
  28.7900         46533.000      57.088
  28.8900         46150.000      57.061
  28.9900         46213.000      57.359
  29.0900         46382.000      57.061
  29.1900         46403.000      56.586
  29.2900         46687.000      57.974
  29.3900         46306.000      56.276
  29.4900         46450.000      57.593
  29.5900         46614.000      58.241
  29.6900         46713.000      57.114
  29.7900         47687.000      57.775
  29.8900         47823.000      57.784
  29.9900         48849.000      58.121
  30.0900         48624.000      58.103
  30.1900         48463.000      58.634
  30.2900         48657.000      58.745
  30.3900         49023.000      58.915
  30.4900         49967.000      59.068
  30.5900         50804.000      60.258
  30.6900         52094.000      59.624
  30.7900         55406.000      62.706
  30.8900         60779.000      64.931
  30.9900         71236.000      70.335
  31.0900         86499.000      77.608
  31.1900        103617.000      85.129
  31.2900        116408.000      91.038
  31.3900        115198.000      90.200
  31.4900        101496.000      84.083
  31.5900         82740.000      75.967
  31.6900         68772.000      69.914
  31.7900         59330.000      64.707
  31.8900         54316.000      62.306
  31.9900         51696.000      60.324
  32.0900         50089.000      59.666
  32.1900         49556.000      59.473
  32.2900         48546.000      58.146
  32.3900         48126.000      58.060
  32.4900         48272.000      58.949
  32.5900         47752.000      57.498
  32.6900         47459.000      58.017
  32.7900         47357.000      57.576
  32.8900         47204.000      56.851
  32.9900         47124.000      58.155
  33.0900         46875.000      57.541
  33.1900         46997.000      57.254
  33.2900         46691.000      57.359
  33.3900         46955.000      56.666
  33.4900         46925.000      56.657
  33.5900         46860.000      57.515
  33.6900         46612.000      56.267
  33.7900         46890.000      56.710
  33.8900         46861.000      58.043
  33.9900         47107.000      56.507
  34.0900         47297.000      57.454
  34.1900         47627.000      57.827
  34.2900         47258.000      57.697
  34.3900         46557.000      56.754
  34.4900         47196.000      58.189
  34.5900         46819.000      57.628
  34.6900         46684.000      56.595
  34.7900         47142.000      56.312
  34.8900         47362.000      56.877
  34.9900         47099.000      56.974
  35.0900         47162.000      57.463
  35.1900         47464.000      57.184
  35.2900         48017.000      57.871
  35.3900         47295.000      57.193
  35.4900         48066.000      58.241
  35.5900         48904.000      58.438
  35.6900         49877.000      59.674
  35.7900         51553.000      59.548
  35.8900         53512.000      61.294
  35.9900         58844.000      64.164
  36.0900         64883.000      68.557
  36.1900         73305.000      72.429
  36.2900         80037.000      75.213
  36.3900         82125.000      77.104
  36.4900         76982.000      73.342
  36.5900         69601.000      69.369
  36.6900         62439.000      65.696
  36.7900         56865.000      62.944
  36.8900         52625.000      60.877
  36.9900         51184.000      60.366
  37.0900         49659.000      58.189
  37.1900         48746.000      58.078
  37.2900         48122.000      57.836
  37.3900         47769.000      57.306
  37.4900         47501.000      57.210
  37.5900         47274.000      56.877
  37.6900         47185.000      56.604
  37.7900         46359.000      57.193
  37.8900         46333.000      56.798
  37.9900         46333.000      57.018
  38.0900         46402.000      57.201
  38.1900         46324.000      57.315
  38.2900         46105.000      56.489
  38.3900         46311.000      56.249
  38.4900         46594.000      56.965
  38.5900         46361.000      56.692
  38.6900         46341.000      55.714
  38.7900         46379.000      56.134
  38.8900         46318.000      56.125
  38.9900         46627.000      57.359
  39.0900         46292.000      56.560
  39.1900         46480.000      56.098
  39.2900         46295.000      56.480
  39.3900         46994.000      57.359
  39.4900         46559.000      57.480
  39.5900         46843.000      57.158
  39.6900         46941.000      57.096
  39.7900         46933.000      56.622
  39.8900         46306.000      55.642
  39.9900         46593.000      56.736
  40.0900         46293.000      57.088
  40.1900         46189.000      56.991
  40.2900         46806.000      56.285
  40.3900         46215.000      56.586
  40.4900         46524.000      56.471
  40.5900         46405.000      56.462
  40.6900         46218.000      56.178
  40.7900         46564.000      56.356
  40.8900         46512.000      56.249
  40.9900         46481.000      57.767
  41.0900         46484.000      57.026
  41.1900         46132.000      56.232
  41.2900         46666.000      57.088
  41.3900         46118.000      56.160
  41.4900         46376.000      56.196
  41.5900         46054.000      56.241
  41.6900         46032.000      55.920
  41.7900         46291.000      55.218
  41.8900         46677.000      57.158
  41.9900         46071.000      55.785
  42.0900         46514.000      56.436
  42.1900         46688.000      56.754
  42.2900         45796.000      55.830
  42.3900         46674.000      56.727
  42.4900         46224.000      56.675
  42.5900         46264.000      56.489
  42.6900         46099.000      55.991
  42.7900         46333.000      56.595
  42.8900         46247.000      56.613
  42.9900         46508.000      55.866
  43.0900         46421.000      55.651
  43.1900         46246.000      57.359
  43.2900         46409.000      55.597
  43.3900         46623.000      56.692
  43.4900         46271.000      56.666
  43.5900         46648.000      56.125
  43.6900         46380.000      56.285
  43.7900         46247.000      55.920
  43.8900         46368.000      55.687
  43.9900         46127.000      56.143
  44.0900         46426.000      55.830
  44.1900         46337.000      56.657
  44.2900         46647.000      56.507
  44.3900         46403.000      55.489
  44.4900         46599.000      56.356
  44.5900         46429.000      56.080
  44.6900         46372.000      55.308
  44.7900         46980.000      56.232
  44.8900         46063.000      55.955
  44.9900         46782.000      56.507
  45.0900         46306.000      55.480
  45.1900         46555.000      56.489
  45.2900         46633.000      55.480
  45.3900         46696.000      56.542
  45.4900         46487.000      56.187
  45.5900         46345.000      55.758
  45.6900         46356.000      56.515
  45.7900         46493.000      55.606
  45.8900         46185.000      55.669
  45.9900         46891.000      55.776
  46.0900         46162.000      55.866
  46.1900         46805.000      56.312
  46.2900         46847.000      56.701
  46.3900         46755.000      56.249
  46.4900         46871.000      55.390
  46.5900         46881.000      55.955
  46.6900         46369.000      56.383
  46.7900         46888.000      56.868
  46.8900         47006.000      55.606
  46.9900         46578.000      57.254
  47.0900         47178.000      56.524
  47.1900         46703.000      56.498
  47.2900         47019.000      56.939
  47.3900         46667.000      55.848
  47.4900         47122.000      56.267
  47.5900         47818.000      56.267
  47.6900         48795.000      57.775
  47.7900         49518.000      58.694
  47.8900         49969.000      58.301
  47.9900         49215.000      57.210
  48.0900         47918.000      57.454
  48.1900         47528.000      56.498
  48.2900         47146.000      56.116
  48.3900         47170.000      56.498
  48.4900         47486.000      56.249
  48.5900         46901.000      55.839
  48.6900         46804.000      55.794
  48.7900         46640.000      56.613
  48.8900         46821.000      56.771
  48.9900         46997.000      55.839
  49.0900         46543.000      56.312
  49.1900         47111.000      56.727
  49.2900         46691.000      56.134
  49.3900         47221.000      56.666
  49.4900         46896.000      56.196
  49.5900         47413.000      56.824
  49.6900         46884.000      55.946
  49.7900         46834.000      56.560
  49.8900         46803.000      56.391
  49.9900         46808.000      55.687
  50.0900         46779.000      56.258
  50.1900         46735.000      56.639
  50.2900         46974.000      56.294
  50.3900         47309.000      56.409
  50.4900         47015.000      57.053
  50.5900         47167.000      57.245
  50.6900         46882.000      56.071
  50.7900         47050.000      56.276
  50.8900         46664.000      56.285
  50.9900         47016.000      56.471
  51.0900         46994.000      56.214
  51.1900         46788.000      55.902
  51.2900         46851.000      57.402
  51.3900         47074.000      55.740
  51.4900         47429.000      56.630
  51.5900         47184.000      56.798
  51.6900         47963.000      57.437
  51.7900         48293.000      58.138
  51.8900         49382.000      57.219
  51.9900         51304.000      58.958
  52.0900         54775.000      60.893
  52.1900         58897.000      63.561
  52.2900         63242.000      64.753
  52.3900         65101.000      67.661
  52.4900         64077.000      66.701
  52.5900         60819.000      65.422
  52.6900         56669.000      62.169
  52.7900         52520.000      60.498
  52.8900         49749.000      57.723
  52.9900         48813.000      57.602
  53.0900         47741.000      56.710
  53.1900         47513.000      55.884
  53.2900         47313.000      56.498
  53.3900         47261.000      56.515
  53.4900         46664.000      55.920
  53.5900         46859.000      55.937
  53.6900         46555.000      56.551
  53.7900         46813.000      56.418
  53.8900         46833.000      56.542
  53.9900         46557.000      55.651
  54.0900         46728.000      56.071
  54.1900         46857.000      56.223
  54.2900         46626.000      56.294
  54.3900         46523.000      55.937
  54.4900         46588.000      56.675
  54.5900         46573.000      56.436
  54.6900         46663.000      56.648
  54.7900         46471.000      55.471
  54.8900         46581.000      56.639
  54.9900         46947.000      56.409
  55.0900         47471.000      57.105
  55.1900         46646.000      56.062
  55.2900         46753.000      56.524
  55.3900         46655.000      56.807
  55.4900         46726.000      56.089
  55.5900         46643.000      56.622
  55.6900         46612.000      55.588
  55.7900         46269.000      56.771
  55.8900         46682.000      56.542
  55.9900         46954.000      56.080
  56.0900         46542.000      56.569
  56.1900         46687.000      57.297
  56.2900         46006.000      56.018
  56.3900         45979.000      56.116
  56.4900         46795.000      56.347
  56.5900         46627.000      55.785
  56.6900         46147.000      55.182
  56.7900         46415.000      56.480
  56.8900         46157.000      56.089
  56.9900         46251.000      55.946
  57.0900         46312.000      55.893
  57.1900         46224.000      55.740
  57.2900         46463.000      55.731
  57.3900         46969.000      56.622
  57.4900         45983.000      56.604
  57.5900         46287.000      55.991
  57.6900         46300.000      55.911
  57.7900         46315.000      56.089
  57.8900         45967.000      55.785
  57.9900         46273.000      56.595
  58.0900         46166.000      56.054
  58.1900         46071.000      56.391
  58.2900         46224.000      55.624
  58.3900         46403.000      56.400
  58.4900         46594.000      56.974
  58.5900         46296.000      56.445
  58.6900         46669.000      56.152
  58.7900         46687.000      56.471
  58.8900         46390.000      56.789
  58.9900         46187.000      56.071
  59.0900         46548.000      56.205
  59.1900         46442.000      56.098
  59.2900         46493.000      56.903
  59.3900         46462.000      56.196
  59.4900         46686.000      55.776
  59.5900         46548.000      56.000
  59.6900         46365.000      55.973
  59.7900         46599.000      56.657
  59.8900         46669.000      55.875
  59.9900         46448.000      57.140
  60.0900         46641.000      56.877
  60.1900         46816.000      56.365
  60.2900         46812.000      57.131
  60.3900         46817.000      57.896
  60.4900         46729.000      55.696
  60.5900         46585.000      56.178
  60.6900         46688.000      56.356
  60.7900         47209.000      56.815
  60.8900         46957.000      56.719
  60.9900         46927.000      57.297
  61.0900         47883.000      57.035
  61.1900         48156.000      58.258
  61.2900         48182.000      58.026
  61.3900         49087.000      58.069
  61.4900         49643.000      58.086
  61.5900         50811.000      60.008
  61.6900         52709.000      59.942
  61.7900         54928.000      61.579
  61.8900         58234.000      63.198
  61.9900         62102.000      65.750
  62.0900         66492.000      67.934
  62.1900         70643.000      70.164
  62.2900         73682.000      70.767
  62.3900         73960.000      70.753
  62.4900         72880.000      70.887
  62.5900         69408.000      69.513
  62.6900         65514.000      67.926
  62.7900         60945.000      65.590
  62.8900         56706.000      62.145
  62.9900         54020.000      60.721
  63.0900         51587.000      59.808
  63.1900         50219.000      59.119
  63.2900         49213.000      57.845
  63.3900         48868.000      57.324
  63.4900         48408.000      58.583
  63.5900         48363.000      58.215
  63.6900         47837.000      57.888
  63.7900         48427.000      58.198
  63.8900         48649.000      57.619
  63.9900         48750.000      57.767
  64.0900         49326.000      57.819
  64.1900         49876.000      59.076
  64.2900         51057.000      59.708
  64.3900         51997.000      59.749
  64.4900         53943.000      61.221
  64.5900         58267.000      64.172
  64.6900         64323.000      67.067
  64.7900         74410.000      70.944
  64.8900         87816.000      78.810
  64.9900        104635.000      85.785
  65.0900        123967.000      92.925
  65.1900        144131.000     101.385
  65.2900        162736.000     106.353
  65.3900        176517.000     111.987
  65.4900        178843.000     112.606
  65.5900        171484.000     110.476
  65.6900        159471.000     105.863
  65.7900        140511.000      98.985
  65.8900        119346.000      92.634
  65.9900         98481.000      83.504
  66.0900         81225.000      76.118
  66.1900         68630.000      69.253
  66.2900         61253.000      64.969
  66.3900         56958.000      63.467
  66.4900         53248.000      61.000
  66.5900         51355.000      60.514
  66.6900         49782.000      59.245
  66.7900         48882.000      57.324
  66.8900         48208.000      57.602
  66.9900         47770.000      57.411
  67.0900         47359.000      56.321
  67.1900         47012.000      57.096
  67.2900         46832.000      56.258
  67.3900         46690.000      56.727
  67.4900         46638.000      56.160
  67.5900         47618.000      57.254
  67.6900         47212.000      55.731
  67.7900         47281.000      57.228
  67.8900         46738.000      57.402
  67.9900         46825.000      56.445
  68.0900         46460.000      56.027
  68.1900         45975.000      55.723
  68.2900         45566.000      55.731
  68.3900         45601.000      56.187
  68.4900         45141.000      55.543
  68.5900         45418.000      55.245
  68.6900         44876.000      54.745
  68.7900         44870.000      56.009
  68.8900         45057.000      55.435
  68.9900         45120.000      56.000
  69.0900         44252.000      55.299
  69.1900         44735.000      55.018
  69.2900         44781.000      54.964
  69.3900         44602.000      56.489
  69.4900         45013.000      55.353
  69.5900         44685.000      55.740
  69.6900         44782.000      54.863
  69.7900         44857.000      54.672
  69.8900         44658.000      55.964
  69.9900         44775.000      55.281
  70.0900         44373.000      54.653
  70.1900         44368.000      55.955
  70.2900         44800.000      54.918
  70.3900         44326.000      55.109
  70.4900         44413.000      55.182
  70.5900         44418.000      54.653
  70.6900         44261.000      55.642
  70.7900         44761.000      55.552
  70.8900         44499.000      55.127
  70.9900         44245.000      54.845
  71.0900         44579.000      56.018
  71.1900         44356.000      55.236
  71.2900         44750.000      55.794
  71.3900         45291.000      56.062
  71.4900         46126.000      57.149
  71.5900         46205.000      57.533
  71.6900         46685.000      56.027
  71.7900         47571.000      57.149
  71.8900         48428.000      58.301
  71.9900         48410.000      58.592
  72.0900         48942.000      58.455
  72.1900         49289.000      57.784
  72.2900         49076.000      58.327
  72.3900         48856.000      58.966
  72.4900         48444.000      58.034
  72.5900         48453.000      58.112
  72.6900         47878.000      57.507
  72.7900         47133.000      57.140
  72.8900         46196.000      56.365
  72.9900         45595.000      55.182
  73.0900         45657.000      55.758
  73.1900         44961.000      56.160
  73.2900         44817.000      54.955
  73.3900         44686.000      54.964
  73.4900         44423.000      55.209
  73.5900         44994.000      55.687
  73.6900         45084.000      56.365
  73.7900         45013.000      55.091
  73.8900         45239.000      55.669
  73.9900         44629.000      55.362
  74.0900         44592.000      56.036
  74.1900         44344.000      55.408
  74.2900         43981.000      54.727
  74.3900         44089.000      55.399
  74.4900         44116.000      54.982
  74.5900         44083.000      54.927
  74.6900         43936.000      55.100
  74.7900         44026.000      54.305
  74.8900         44852.000      55.227
  74.9900         44435.000      55.317
  75.0900         44624.000      55.731
  75.1900         44229.000      54.945
  75.2900         44837.000      56.009
  75.3900         44915.000      56.205
  75.4900         45539.000      55.606
  75.5900         45392.000      55.543
  75.6900         46221.000      56.701
  75.7900         46481.000      56.639
  75.8900         48038.000      58.172
  75.9900         49053.000      57.715
  76.0900         50212.000      59.431
  76.1900         53451.000      60.967
  76.2900         58060.000      62.897
  76.3900         64905.000      67.179
  76.4900         72866.000      71.798
  76.5900         83718.000      76.635
  76.6900         96503.000      82.365
  76.7900        109757.000      88.402
  76.8900        124739.000      93.648
  76.9900        139684.000      99.035
  77.0900        153152.000     104.876
  77.1900        162702.000     107.280
  77.2900        165874.000     108.531
  77.3900        163125.000     108.176
  77.4900        154975.000     104.833
  77.5900        143582.000     100.354
  77.6900        129843.000      96.296
  77.7900        113778.000      89.543
  77.8900         98274.000      83.821
  77.9900         84057.000      76.753
  78.0900         72384.000      70.965
  78.1900         64334.000      65.947
  78.2900         58665.000      64.109
  78.3900         54037.000      61.425
  78.4900         51264.000      59.992
  78.5900         49855.000      59.666
  78.6900         48059.000      57.428
  78.7900         47251.000      56.329
  78.8900         46534.000      56.454
  78.9900         45826.000      57.671
  79.0900         45329.000      55.570
  79.1900         45660.000      55.390
  79.2900         45114.000      56.125
  79.3900         45245.000      56.569
  79.4900         45245.000      56.400
  79.5900         45034.000      55.326
  79.6900         44430.000      55.127
  79.7900         44304.000      54.672
  79.8900         44066.000      55.462
  79.9900         44166.000      55.018
  80.0900         43422.000      54.717
  80.1900         43845.000      54.927
  80.2900         43711.000      55.027
  80.3900         43428.000      55.082
  80.4900         43275.000      55.678
  80.5900         43156.000      54.185
  80.6900         43092.000      54.809
  80.7900         43406.000      55.073
  80.8900         43257.000      54.863
  80.9900         43087.000      54.863
  81.0900         42679.000      54.644
  81.1900         42562.000      54.498
  81.2900         43055.000      54.534
  81.3900         42291.000      53.759
  81.4900         42561.000      54.772
  81.5900         42376.000      54.461
  81.6900         42744.000      54.351
  81.7900         42490.000      54.083
  81.8900         42230.000      54.507
  81.9900         43005.000      54.544
  82.0900         42396.000      53.628
  82.1900         42558.000      54.019
  82.2900         43242.000      54.286
  82.3900         42615.000      52.745
  82.4900         42296.000      54.891
  82.5900         42699.000      54.516
  82.6900         42783.000      53.963
  82.7900         42755.000      54.222
  82.8900         42362.000      54.617
  82.9900         42544.000      55.362
  83.0900         42854.000      54.433
  83.1900         42892.000      54.653
  83.2900         42774.000      54.507
  83.3900         42703.000      55.027
  83.4900         42906.000      54.203
  83.5900         42703.000      54.452
  83.6900         42378.000      54.589
  83.7900         42453.000      54.452
  83.8900         42757.000      53.395
  83.9900         42362.000      54.626
  84.0900         42760.000      53.619
  84.1900         42912.000      54.873
  84.2900         42821.000      55.027
  84.3900         43294.000      54.240
  84.4900         43962.000      54.644
  84.5900         43841.000      55.435
  84.6900         44660.000      55.821
  84.7900         45675.000      55.991
  84.8900         46420.000      56.249
  84.9900         47922.000      57.836
  85.0900         49506.000      58.873
  85.1900         50559.000      58.489
  85.2900         51782.000      59.724
  85.3900         53654.000      60.183
  85.4900         54849.000      61.644
  85.5900         56247.000      62.546
  85.6900         56915.000      63.388
  85.7900         56789.000      62.410
  85.8900         56498.000      62.362
  85.9900         55377.000      61.855
  86.0900         54392.000      61.286
  86.1900         52687.000      60.910
  86.2900         51516.000      59.405
  86.3900         49449.000      57.585
  86.4900         47968.000      58.626
  86.5900         46137.000      56.833
  86.6900         45511.000      56.489
  86.7900         44304.000      54.845
  86.8900         43855.000      54.918
  86.9900         43579.000      54.663
  87.0900         43757.000      55.973
  87.1900         43187.000      55.236
  87.2900         42795.000      55.000
  87.3900         43353.000      55.426
  87.4900         43159.000      54.489
  87.5900         44117.000      54.653
  87.6900         44306.000      55.263
  87.7900         44735.000      56.214
  87.8900         45331.000      56.027
  87.9900         45931.000      56.569
  88.0900         47035.000      57.697
  88.1900         47221.000      57.306
  88.2900         47808.000      57.035
  88.3900         48942.000      58.864
  88.4900         49559.000      59.313
  88.5900         49769.000      59.127
  88.6900         49726.000      59.203
  88.7900         49517.000      58.813
  88.8900         48810.000      58.267
  88.9900         48407.000      57.593
  89.0900         46977.000      56.586
  89.1900         46625.000      57.245
  89.2900         45844.000      56.833
  89.3900         44731.000      55.100
  89.4900         44084.000      55.507
  89.5900         43443.000      53.963
  89.6900         43515.000      54.571
  89.7900         42767.000      54.553
  89.8900         42773.000      54.213
  89.9900         42385.000      53.320
  90.0900         42659.000      54.544
  90.1900         41989.000      53.301
  90.2900         42074.000      54.046
  90.3900         41896.000      54.120
  90.4900         42275.000      53.870
  90.5900         42316.000      54.342
  90.6900         42297.000      55.018
  90.7900         42261.000      54.433
  90.8900         42214.000      54.571
  90.9900         42595.000      54.507
  91.0900         42304.000      54.617
  91.1900         42113.000      53.376
  91.2900         42020.000      53.235
  91.3900         42058.000      53.047
  91.4900         41871.000      53.423
  91.5900         41750.000      53.805
  91.6900         41584.000      53.935
  91.7900         41292.000      53.619
  91.8900         41536.000      53.712
  91.9900         41733.000      53.638
  92.0900         41102.000      53.638
  92.1900         41452.000      54.102
  92.2900         41548.000      53.991
  92.3900         41429.000      52.697
  92.4900         41413.000      53.442
  92.5900         41190.000      53.263
  92.6900         41278.000      52.820
  92.7900         41495.000      53.263
  92.8900         41558.000      53.722
  92.9900         41649.000      53.861
  93.0900         41139.000      53.339
  93.1900         41389.000      53.413
  93.2900         41589.000      53.085
  93.3900         41451.000      53.460
  93.4900         41327.000      54.387
  93.5900         41293.000      52.764
  93.6900         41243.000      53.273
  93.7900         40999.000      53.385
  93.8900         41041.000      53.057
  93.9900         41465.000      52.764
  94.0900         41606.000      53.981
  94.1900         41581.000      54.203
  94.2900         41482.000      53.768
  94.3900         41390.000      53.722
  94.4900         41236.000      53.544
  94.5900         41184.000      54.378
  94.6900         40995.000      53.282
  94.7900         41209.000      54.148
  94.8900         41419.000      54.111
  94.9900         41400.000      53.094
  95.0900         41615.000      54.360
  95.1900         41230.000      53.066
  95.2900         41127.000      52.593
  95.3900         41494.000      53.423
  95.4900         41314.000      53.385
  95.5900         41498.000      53.638
  95.6900         41575.000      53.619
  95.7900         41588.000      54.369
  95.8900         41615.000      53.395
  95.9900         41863.000      53.610
  96.0900         41574.000      53.310
  96.1900         42256.000      53.339
  96.2900         41742.000      53.963
  96.3900         41698.000      53.423
  96.4900         41973.000      53.675
  96.5900         41692.000      53.451
  96.6900         41765.000      53.749
  96.7900         41829.000      53.638
  96.8900         41598.000      53.460
  96.9900         41331.000      53.638
  97.0900         41494.000      52.868
  97.1900         41256.000      53.348
  97.2900         40987.000      52.934
  97.3900         40736.000      52.421
  97.4900         40744.000      52.991
  97.5900         40774.000      53.917
  97.6900         40917.000      53.160
  97.7900         41191.000      53.563
  97.8900         41327.000      52.650
  97.9900         41430.000      53.898
  98.0900         41040.000      52.355
  98.1900         41253.000      53.141
  98.2900         41343.000      54.157
  98.3900         41310.000      54.009
  98.4900         41439.000      53.889
  98.5900         41453.000      53.470
  98.6900         41637.000      53.066
  98.7900         41557.000      53.852
  98.8900         41643.000      53.907
  98.9900         42343.000      54.845
  99.0900         41962.000      53.712
  99.1900         42444.000      54.240
  99.2900         42659.000      55.118
  99.3900         43035.000      54.681
  99.4900         43585.000      55.073
  99.5900         43859.000      55.163
  99.6900         44139.000      55.399
  99.7900         44116.000      56.418
  99.8900         44650.000      55.245
  99.9900         44298.000      55.543
 100.0900         44479.000      56.560
 100.1900         44154.000      55.624
 100.2900         43691.000      54.973
 100.3900         43691.000      55.000
 100.4900         43105.000      54.516
 100.5900         42458.000      53.787
 100.6900         42264.000      53.591
 100.7900         41550.000      52.887
 100.8900         41462.000      53.057
 100.9900         41712.000      54.194
 101.0900         41342.000      53.694
 101.1900         41283.000      53.600
 101.2900         41401.000      53.292
 101.3900         41006.000      53.376
 101.4900         41288.000      54.927
 101.5900         41184.000      53.544
 101.6900         41129.000      53.009
 101.7900         41503.000      52.943
 101.8900         40982.000      53.254
 101.9900         41270.000      53.113
 102.0900         41279.000      53.981
 102.1900         41277.000      53.132
 102.2900         41667.000      53.320
 102.3900         41196.000      53.907
 102.4900         41236.000      52.953
 102.5900         41431.000      53.217
 102.6900         41165.000      53.898
 102.7900         41031.000      54.083
 102.8900         40797.000      53.768
 102.9900         40707.000      52.278
 103.0900         40799.000      53.123
 103.1900         40966.000      53.226
 103.2900         41318.000      54.037
 103.3900         41083.000      54.166
 103.4900         40975.000      53.870
 103.5900         40750.000      53.273
 103.6900         40959.000      52.981
 103.7900         40951.000      53.413
 103.8900         40984.000      53.348
 103.9900         40846.000      53.310
 104.0900         40925.000      53.544
 104.1900         41111.000      53.638
 104.2900         40619.000      53.075
 104.3900         40943.000      53.226
 104.4900         41410.000      53.179
 104.5900         40746.000      53.833
 104.6900         40841.000      53.000
 104.7900         41264.000      54.259
 104.8900         41282.000      53.694
 104.9900         41116.000      52.858
 105.0900         41483.000      53.367
 105.1900         41573.000      53.254
 105.2900         41355.000      53.544
 105.3900         41515.000      53.907
 105.4900         41772.000      53.740
 105.5900         41565.000      54.222
 105.6900         41775.000      54.470
 105.7900         41490.000      53.038
 105.8900         41939.000      54.120
 105.9900         41983.000      54.009
 106.0900         42798.000      54.973
 106.1900         42560.000      53.451
 106.2900         43078.000      54.653
 106.3900         43464.000      54.626
 106.4900         44518.000      55.937
 106.5900         45145.000      56.009
 106.6900         46105.000      56.833
 106.7900         48000.000      58.267
 106.8900         49244.000      58.112
 106.9900         50861.000      60.033
 107.0900         53762.000      60.490
 107.1900         55980.000      61.563
 107.2900         59226.000      63.695
 107.3900         62094.000      66.491
 107.4900         65289.000      67.067
 107.5900         68736.000      69.986
 107.6900         72317.000      71.610
 107.7900         76596.000      73.770
 107.8900         79329.000      75.206
 107.9900         82465.000      75.980
 108.0900         86264.000      78.269
 108.1900         88498.000      79.038
 108.2900         89639.000      79.391
 108.3900         90076.000      79.674
 108.4900         90358.000      79.517
 108.5900         89625.000      80.218
 108.6900         89001.000      79.234
 108.7900         86333.000      77.904
 108.8900         83284.000      76.498
 108.9900         79448.000      74.766
 109.0900         76559.000      72.753
 109.1900         72584.000      70.880
 109.2900         68559.000      69.850
 109.3900         65744.000      68.484
 109.4900         62501.000      66.370
 109.5900         58816.000      65.000
 109.6900         56219.000      62.546
 109.7900         53339.000      60.877
 109.8900         50977.000      60.175
 109.9900         49267.000      58.034
 110.0900         47551.000      57.306
 110.1900         46026.000      55.749
 110.2900         44712.000      56.276
 110.3900         44370.000      55.776
 110.4900         43712.000      55.875
 110.5900         43143.000      54.854
 110.6900         42707.000      54.982
 110.7900         42497.000      54.378
 110.8900         41957.000      54.240
 110.9900         41633.000      53.814
 111.0900         41780.000      54.009
 111.1900         41140.000      54.120
 111.2900         41557.000      53.833
 111.3900         40824.000      52.877
 111.4900         40886.000      53.768
 111.5900         40862.000      52.355
 111.6900         40968.000      53.879
 111.7900         41237.000      53.600
 111.8900         41141.000      53.694
 111.9900         40912.000      52.981
 112.0900         40679.000      53.498
 112.1900         40707.000      52.906
 112.2900         40620.000      53.339
 112.3900         41127.000      53.926
 112.4900         40865.000      53.329
 112.5900         41074.000      53.516
 112.6900         41093.000      53.628
 112.7900         41069.000      53.245
 112.8900         41005.000      53.926
 112.9900         41283.000      53.666
 113.0900         41042.000      52.802
 113.1900         40955.000      52.726
 113.2900         41022.000      54.083
 113.3900         41435.000      54.194
 113.4900         41490.000      53.479
 113.5900         41326.000      53.861
 113.6900         41266.000      54.268
 113.7900         41361.000      53.917
 113.8900         41335.000      54.222
 113.9900         41264.000      53.179
 114.0900         41112.000      53.357
 114.1900         41260.000      54.406
 114.2900         40990.000      52.764
 114.3900         40908.000      53.777
 114.4900         40644.000      53.170
 114.5900         40822.000      54.065
 114.6900         40564.000      52.924
 114.7900         40658.000      53.740
 114.8900         40664.000      52.297
 114.9900         40468.000      53.226
 115.0900         40441.000      53.179
 115.1900         40570.000      53.000
 115.2900         40231.000      52.858
 115.3900         40025.000      53.301
 115.4900         40172.000      52.943
 115.5900         40157.000      53.488
 115.6900         40291.000      53.479
 115.7900         40121.000      52.953
 115.8900         39788.000      53.132
 115.9900         39870.000      52.621
 116.0900         39895.000      52.517
 116.1900         40149.000      52.669
 116.2900         40048.000      52.010
 116.3900         39824.000      52.583
 116.4900         39923.000      52.934
 116.5900         40127.000      52.678
 116.6900         39530.000      53.085
 116.7900         39824.000      52.934
 116.8900         40287.000      52.364
 116.9900         40040.000      53.367
 117.0900         39998.000      52.659
 117.1900         39867.000      51.264
 117.2900         40168.000      53.442
 117.3900         39858.000      52.849
 117.4900         39930.000      52.631
 117.5900         39839.000      53.292
 117.6900         40057.000      52.019
 117.7900         39983.000      53.263
 117.8900         39895.000      52.163
 117.9900         39770.000      52.583
 118.0900         40036.000      52.182
 118.1900         39828.000      52.849
 118.2900         39880.000      52.754
 118.3900         40120.000      54.129
 118.4900         39852.000      53.179
 118.5900         40054.000      52.839
 118.6900         39989.000      53.310
 118.7900         40057.000      53.544
 118.8900         39657.000      53.123
 118.9900         40287.000      52.249
 119.0900         40092.000      52.764
 119.1900         40317.000      51.614
 119.2900         40304.000      52.364
 119.3900         40204.000      52.839
 119.4900         40114.000      52.773
 119.5900         40124.000      53.292
 119.6900         40246.000      53.292
 119.7900         40574.000      52.421
 119.8900         41231.000      53.009
 119.9900         40801.000      52.858
 120.0900         40431.000      52.858
 120.1900         40662.000      53.057
 120.2900         41334.000      54.046
 120.3900         41508.000      53.432
 120.4900         40844.000      53.907
 120.5900         41621.000      52.726
 120.6900         41415.000      54.406
 120.7900         41980.000      54.148
 120.8900         42049.000      53.749
 120.9900         42930.000      54.882
 121.0900         43390.000      56.267
 121.1900         44034.000      56.107
 121.2900         44858.000      55.731
 121.3900         45871.000      56.152
 121.4900         47275.000      57.767
 121.5900         49104.000      58.694
 121.6900         50826.000      59.582
 121.7900         52717.000      60.721
 121.8900         55945.000      62.362
 121.9900         58262.000      64.506
 122.0900         62180.000      66.317
 122.1900         65571.000      68.330
 122.2900         69683.000      69.570
 122.3900         73306.000      71.547
 122.4900         77995.000      73.451
 122.5900         82979.000      76.368
 122.6900         88229.000      78.943
 122.7900         94461.000      82.638
 122.8900         99506.000      83.893
 122.9900        105325.000      86.412
 123.0900        111897.000      88.521
 123.1900        117093.000      91.962
 123.2900        123833.000      93.488
 123.3900        129119.000      96.094
 123.4900        134824.000      97.082
 123.5900        140216.000     100.160
 123.6900        145141.000     101.297
 123.7900        149868.000     103.189
 123.8900        152880.000     104.192
 123.9900        154488.000     104.828
 124.0900        154851.000     104.523
 124.1900        154235.000     104.900
 124.2900        154266.000     104.365
 124.3900        151647.000     104.575
 124.4900        148858.000     102.874
 124.5900        144410.000     100.712
 124.6900        138923.000      99.207
 124.7900        132733.000      97.046
 124.8900        126099.000      95.021
 124.9900        119655.000      91.378
 125.0900        114489.000      89.577
 125.1900        109285.000      88.448
 125.2900        103100.000      85.697
 125.3900         97911.000      83.666
 125.4900         92813.000      80.418
 125.5900         87246.000      78.243
 125.6900         81688.000      76.511
 125.7900         76524.000      73.593
 125.8900         71717.000      70.079
 125.9900         67373.000      70.000
 126.0900         63414.000      66.873
 126.1900         60281.000      64.915
 126.2900         57137.000      62.944
 126.3900         54573.000      62.889
 126.4900         52437.000      60.787
 126.5900         50468.000      59.506
 126.6900         48832.000      58.992
 126.7900         47682.000      57.489
 126.8900         46880.000      57.637
 126.9900         46341.000      56.622
 127.0900         45253.000      56.187
 127.1900         44248.000      54.608
 127.2900         43979.000      55.154
 127.3900         43421.000      55.362
 127.4900         42677.000      53.870
 127.5900         42121.000      53.647
 127.6900         41887.000      54.120
 127.7900         41530.000      54.882
 127.8900         41485.000      54.231
 127.9900         41058.000      53.740
 128.0900         40928.000      53.731
 128.1900         40789.000      53.226
 128.2900         40726.000      52.374
 128.3900         40700.000      52.802
 128.4900         40459.000      52.811
 128.5900             7.000       1.000
 128.6900             5.000       1.000
