XYDATA SparksLave Co3O4-quenched_600_300K 
INTER        1       1       0     0.100000
TEMP       298.377      300.008      300.000
! d1b Date 14-Nov-11 Time 20:02:39 Run 129985 129974>129985
! d1b Date 14-Nov-11 Time 20:02:39 Run 129985 129974>129985
! Monitor/counts, Counting time/sec:  1.10134e+007 1.10134e+007
   0.7900             4.000       1.000
   0.8900             6.000       1.000
   0.9900          1858.000      12.450
   1.0900          1968.000      13.153
   1.1900          1861.000      12.610
   1.2900          1778.000      11.874
   1.3900          1852.000      11.832
   1.4900          1916.000      12.689
   1.5900          1945.000      12.689
   1.6900          1996.000      13.565
   1.7900          2677.000      15.460
   1.8900          3983.000      18.894
   1.9900          6437.000      23.473
   2.0900          8916.000      27.677
   2.1900         11190.000      31.113
   2.2900         14091.000      34.234
   2.3900         17895.000      39.887
   2.4900         21814.000      43.370
   2.5900         25729.000      46.562
   2.6900         29459.000      49.639
   2.7900         32308.000      52.019
   2.8900         35150.000      53.666
   2.9900         38024.000      55.884
   3.0900         40995.000      58.335
   3.1900         43404.000      60.770
   3.2900         45372.000      61.636
   3.3900         45699.000      62.258
   3.4900         45299.000      61.041
   3.5900         44727.000      61.847
   3.6900         44300.000      61.449
   3.7900         43918.000      61.262
   3.8900         42414.000      59.346
   3.9900         43690.000      60.688
   4.0900         43602.000      60.357
   4.1900         43551.000      60.885
   4.2900         43874.000      59.791
   4.3900         45109.000      61.498
   4.4900         46245.000      61.196
   4.5900         48743.000      63.804
   4.6900         50614.000      64.715
   4.7900         52499.000      66.566
   4.8900         55053.000      67.683
   4.9900         56889.000      68.826
   5.0900         58851.000      69.993
   5.1900         60777.000      72.132
   5.2900         62956.000      72.201
   5.3900         65030.000      72.629
   5.4900         67104.000      74.760
   5.5900         68486.000      75.233
   5.6900         70160.000      76.341
   5.7900         71354.000      76.779
   5.8900         72767.000      77.537
   5.9900         73611.000      79.391
   6.0900         73501.000      77.227
   6.1900         73620.000      77.634
   6.2900         73030.000      77.807
   6.3900         72813.000      77.705
   6.4900         72717.000      77.692
   6.5900         72042.000      77.846
   6.6900         71400.000      77.705
   6.7900         71281.000      76.518
   6.8900         70593.000      76.675
   6.9900         69437.000      75.730
   7.0900         68972.000      76.138
   7.1900         67954.000      75.406
   7.2900         67573.000      74.786
   7.3900         66978.000      75.193
   7.4900         66070.000      74.927
   7.5900         65545.000      73.062
   7.6900         63873.000      72.774
   7.7900         63985.000      72.305
   7.8900         62911.000      72.422
   7.9900         61485.000      71.007
   8.0900         61335.000      70.795
   8.1900         59881.000      69.785
   8.2900         59064.000      69.914
   8.3900         58386.000      68.927
   8.4900         57291.000      68.359
   8.5900         56426.000      68.527
   8.6900         55546.000      68.651
   8.7900         54555.000      67.439
   8.8900         53826.000      67.007
   8.9900         53247.000      67.015
   9.0900         52235.000      65.238
   9.1900         51352.000      65.123
   9.2900         50444.000      64.514
   9.3900         49645.000      64.211
   9.4900         48710.000      63.103
   9.5900         48112.000      63.277
   9.6900         46638.000      61.830
   9.7900         45728.000      61.262
   9.8900         45193.000      61.506
   9.9900         44566.000      61.156
  10.0900         43711.000      59.422
  10.1900         42685.000      59.414
  10.2900         41977.000      59.816
  10.3900         40932.000      58.703
  10.4900         40480.000      58.078
  10.5900         39757.000      57.472
  10.6900         39506.000      57.671
  10.7900         38878.000      56.754
  10.8900         38646.000      56.303
  10.9900         37969.000      56.789
  11.0900         37884.000      56.569
  11.1900         37573.000      56.374
  11.2900         37777.000      57.280
  11.3900         37352.000      55.588
  11.4900         37504.000      56.595
  11.5900         37836.000      55.893
  11.6900         37647.000      55.714
  11.7900         37175.000      55.064
  11.8900         37152.000      56.613
  11.9900         37654.000      56.116
  12.0900         37255.000      56.223
  12.1900         37005.000      55.991
  12.2900         37128.000      56.152
  12.3900         37416.000      56.089
  12.4900         37497.000      55.812
  12.5900         37440.000      55.964
  12.6900         37118.000      54.854
  12.7900         37212.000      55.227
  12.8900         37050.000      55.911
  12.9900         37080.000      56.391
  13.0900         37285.000      55.218
  13.1900         37176.000      56.062
  13.2900         36859.000      55.245
  13.3900         36477.000      55.045
  13.4900         36826.000      55.027
  13.5900         36937.000      55.209
  13.6900         36727.000      55.534
  13.7900         36790.000      55.776
  13.8900         36760.000      54.754
  13.9900         37174.000      55.687
  14.0900         37012.000      56.018
  14.1900         36757.000      55.100
  14.2900         36678.000      55.696
  14.3900         37239.000      55.830
  14.4900         36654.000      55.615
  14.5900         36775.000      55.884
  14.6900         36540.000      56.418
  14.7900         36676.000      55.776
  14.8900         36297.000      55.353
  14.9900         36731.000      54.863
  15.0900         36555.000      55.740
  15.1900         36799.000      56.045
  15.2900         37421.000      56.533
  15.3900         37304.000      55.964
  15.4900         37530.000      55.973
  15.5900         37439.000      55.714
  15.6900         37266.000      55.552
  15.7900         36697.000      55.218
  15.8900         36664.000      55.588
  15.9900         36755.000      54.498
  16.0900         36894.000      56.098
  16.1900         36430.000      55.200
  16.2900         36590.000      55.381
  16.3900         36463.000      55.200
  16.4900         36608.000      55.453
  16.5900         36571.000      55.245
  16.6900         36753.000      54.845
  16.7900         36698.000      56.116
  16.8900         36594.000      54.891
  16.9900         36773.000      55.534
  17.0900         36499.000      55.381
  17.1900         36825.000      54.745
  17.2900         36376.000      55.417
  17.3900         36486.000      55.812
  17.4900         36381.000      54.589
  17.5900         36977.000      54.351
  17.6900         36624.000      55.245
  17.7900         36877.000      56.267
  17.8900         37107.000      55.955
  17.9900         36836.000      55.236
  18.0900         36709.000      56.232
  18.1900         36480.000      56.054
  18.2900         36629.000      55.489
  18.3900         36587.000      55.543
  18.4900         36945.000      56.498
  18.5900         36893.000      56.205
  18.6900         37085.000      55.154
  18.7900         36782.000      55.498
  18.8900         36814.000      55.018
  18.9900         36764.000      56.143
  19.0900         36694.000      54.809
  19.1900         36654.000      54.111
  19.2900         36727.000      56.338
  19.3900         36287.000      55.435
  19.4900         36321.000      55.417
  19.5900         36909.000      56.062
  19.6900         36408.000      55.200
  19.7900         37021.000      56.347
  19.8900         36091.000      54.891
  19.9900         36803.000      56.454
  20.0900         36649.000      55.172
  20.1900         36368.000      55.299
  20.2900         36576.000      55.785
  20.3900         36697.000      55.362
  20.4900         36484.000      55.929
  20.5900         36785.000      55.353
  20.6900         36884.000      55.579
  20.7900         36961.000      56.080
  20.8900         36903.000      55.471
  20.9900         36968.000      55.200
  21.0900         36417.000      55.597
  21.1900         36662.000      55.534
  21.2900         36732.000      55.480
  21.3900         36640.000      55.344
  21.4900         36696.000      55.884
  21.5900         36397.000      55.218
  21.6900         36390.000      55.254
  21.7900         36828.000      55.857
  21.8900         37022.000      55.561
  21.9900         36808.000      55.091
  22.0900         36616.000      55.525
  22.1900         36711.000      55.127
  22.2900         36525.000      54.727
  22.3900         36380.000      55.281
  22.4900         36753.000      55.344
  22.5900         36615.000      55.794
  22.6900         36824.000      55.118
  22.7900         36606.000      55.027
  22.8900         36505.000      55.344
  22.9900         36930.000      54.982
  23.0900         36497.000      56.080
  23.1900         36558.000      55.579
  23.2900         36430.000      54.982
  23.3900         36956.000      56.062
  23.4900         36786.000      55.543
  23.5900         36617.000      54.717
  23.6900         36698.000      54.973
  23.7900         36916.000      55.100
  23.8900         36845.000      56.000
  23.9900         37269.000      56.143
  24.0900         37155.000      54.918
  24.1900         37038.000      55.615
  24.2900         36418.000      54.964
  24.3900         36549.000      55.408
  24.4900         36448.000      55.209
  24.5900         36833.000      56.214
  24.6900         36798.000      55.534
  24.7900         36750.000      55.830
  24.8900         36763.000      55.660
  24.9900         36776.000      55.830
  25.0900         36541.000      55.552
  25.1900         36624.000      55.091
  25.2900         37011.000      56.329
  25.3900         36997.000      54.955
  25.4900         37132.000      55.498
  25.5900         37410.000      55.758
  25.6900         37143.000      56.267
  25.7900         36961.000      55.371
  25.8900         36896.000      56.683
  25.9900         37009.000      55.705
  26.0900         37134.000      55.453
  26.1900         36801.000      55.335
  26.2900         36797.000      55.009
  26.3900         36853.000      55.498
  26.4900         36877.000      55.642
  26.5900         37063.000      54.553
  26.6900         36637.000      55.678
  26.7900         36773.000      55.109
  26.8900         36742.000      55.009
  26.9900         36830.000      56.080
  27.0900         36707.000      55.570
  27.1900         36842.000      55.570
  27.2900         36929.000      55.525
  27.3900         37088.000      55.749
  27.4900         37177.000      56.258
  27.5900         36886.000      55.642
  27.6900         36824.000      54.936
  27.7900         36793.000      54.873
  27.8900         36868.000      56.045
  27.9900         36968.000      55.893
  28.0900         37138.000      56.480
  28.1900         37383.000      55.678
  28.2900         36983.000      56.098
  28.3900         37204.000      55.308
  28.4900         37069.000      56.365
  28.5900         36853.000      56.391
  28.6900         36645.000      55.516
  28.7900         37021.000      56.071
  28.8900         36980.000      56.507
  28.9900         36691.000      54.681
  29.0900         37113.000      55.758
  29.1900         36982.000      54.452
  29.2900         36921.000      55.290
  29.3900         36828.000      54.927
  29.4900         36966.000      55.064
  29.5900         36968.000      55.624
  29.6900         37030.000      55.281
  29.7900         37078.000      56.223
  29.8900         37752.000      56.045
  29.9900         38216.000      56.196
  30.0900         37732.000      56.009
  30.1900         37784.000      55.723
  30.2900         37437.000      55.884
  30.3900         37237.000      55.929
  30.4900         37742.000      57.289
  30.5900         38237.000      56.045
  30.6900         38712.000      56.391
  30.7900         39185.000      56.745
  30.8900         40850.000      59.271
  30.9900         44487.000      60.918
  31.0900         51378.000      65.192
  31.1900         61437.000      71.070
  31.2900         70626.000      77.343
  31.3900         72291.000      77.382
  31.4900         64876.000      73.308
  31.5900         53727.000      67.342
  31.6900         45527.000      60.885
  31.7900         41106.000      59.135
  31.8900         39423.000      58.292
  31.9900         38128.000      56.507
  32.0900         38269.000      56.312
  32.1900         37398.000      55.964
  32.2900         37518.000      56.294
  32.3900         37189.000      55.073
  32.4900         37482.000      55.964
  32.5900         37352.000      54.323
  32.6900         37348.000      55.435
  32.7900         37068.000      54.945
  32.8900         37063.000      55.561
  32.9900         37318.000      55.642
  33.0900         37254.000      55.254
  33.1900         37074.000      56.595
  33.2900         37029.000      55.417
  33.3900         37244.000      55.731
  33.4900         36902.000      55.651
  33.5900         37161.000      55.740
  33.6900         36930.000      55.082
  33.7900         36914.000      54.854
  33.8900         36932.000      55.127
  33.9900         36776.000      55.381
  34.0900         37149.000      55.543
  34.1900         37463.000      55.937
  34.2900         37469.000      55.857
  34.3900         37105.000      55.920
  34.4900         37142.000      55.227
  34.5900         36729.000      55.000
  34.6900         37038.000      55.624
  34.7900         36918.000      55.254
  34.8900         36914.000      56.409
  34.9900         36595.000      55.507
  35.0900         36435.000      54.727
  35.1900         36550.000      55.209
  35.2900         36800.000      55.803
  35.3900         36980.000      54.945
  35.4900         37094.000      55.552
  35.5900         36911.000      55.498
  35.6900         37137.000      56.329
  35.7900         36734.000      55.055
  35.8900         36816.000      55.857
  35.9900         36953.000      54.873
  36.0900         37555.000      54.982
  36.1900         39227.000      56.868
  36.2900         41292.000      58.634
  36.3900         42476.000      58.966
  36.4900         41143.000      58.395
  36.5900         38787.000      57.228
  36.6900         37425.000      56.285
  36.7900         36952.000      56.054
  36.8900         36673.000      55.272
  36.9900         36556.000      55.200
  37.0900         36970.000      55.812
  37.1900         36609.000      55.714
  37.2900         36155.000      54.046
  37.3900         36712.000      55.182
  37.4900         36728.000      54.955
  37.5900         36494.000      55.624
  37.6900         36131.000      54.955
  37.7900         36595.000      54.626
  37.8900         36243.000      55.570
  37.9900         36800.000      55.018
  38.0900         36808.000      54.918
  38.1900         36527.000      55.236
  38.2900         36757.000      55.444
  38.3900         36212.000      55.100
  38.4900         36326.000      55.417
  38.5900         36565.000      55.471
  38.6900         36641.000      55.705
  38.7900         36127.000      55.624
  38.8900         36627.000      55.633
  38.9900         36453.000      55.064
  39.0900         36547.000      54.699
  39.1900         36134.000      54.955
  39.2900         36513.000      56.436
  39.3900         36498.000      54.599
  39.4900         36505.000      55.543
  39.5900         36515.000      55.118
  39.6900         36932.000      54.663
  39.7900         36540.000      55.642
  39.8900         36941.000      55.082
  39.9900         36489.000      54.387
  40.0900         36307.000      55.588
  40.1900         36545.000      55.633
  40.2900         36383.000      54.873
  40.3900         36301.000      55.127
  40.4900         36262.000      54.927
  40.5900         36383.000      54.589
  40.6900         36299.000      54.231
  40.7900         35895.000      55.227
  40.8900         36173.000      54.148
  40.9900         35935.000      55.209
  41.0900         36469.000      54.936
  41.1900         35896.000      54.772
  41.2900         36374.000      54.717
  41.3900         36120.000      54.443
  41.4900         36436.000      55.027
  41.5900         36144.000      55.263
  41.6900         36329.000      54.653
  41.7900         36265.000      54.900
  41.8900         36124.000      54.222
  41.9900         36372.000      54.323
  42.0900         36104.000      55.154
  42.1900         36317.000      54.873
  42.2900         36042.000      55.381
  42.3900         35753.000      54.222
  42.4900         36319.000      55.317
  42.5900         36250.000      56.000
  42.6900         36078.000      55.344
  42.7900         36197.000      55.839
  42.8900         36280.000      55.100
  42.9900         35836.000      54.534
  43.0900         35985.000      54.854
  43.1900         35910.000      55.200
  43.2900         36097.000      54.056
  43.3900         36266.000      55.453
  43.4900         35953.000      55.552
  43.5900         36100.000      54.918
  43.6900         36501.000      55.263
  43.7900         36093.000      54.891
  43.8900         36251.000      55.381
  43.9900         35995.000      54.626
  44.0900         35829.000      54.544
  44.1900         35890.000      54.717
  44.2900         35988.000      55.299
  44.3900         36194.000      55.705
  44.4900         35900.000      54.378
  44.5900         36432.000      55.498
  44.6900         36187.000      55.335
  44.7900         36188.000      55.489
  44.8900         36159.000      55.018
  44.9900         36336.000      54.617
  45.0900         36463.000      55.534
  45.1900         36042.000      54.489
  45.2900         35993.000      54.534
  45.3900         36109.000      54.323
  45.4900         36207.000      55.381
  45.5900         36525.000      55.290
  45.6900         35937.000      54.479
  45.7900         36358.000      54.791
  45.8900         36209.000      55.723
  45.9900         36413.000      55.911
  46.0900         36198.000      54.927
  46.1900         36275.000      54.534
  46.2900         36009.000      54.378
  46.3900         36127.000      55.064
  46.4900         36402.000      54.562
  46.5900         36250.000      54.891
  46.6900         36131.000      55.172
  46.7900         36143.000      53.926
  46.8900         36140.000      54.323
  46.9900         36309.000      55.290
  47.0900         35916.000      54.791
  47.1900         36274.000      55.073
  47.2900         36114.000      55.191
  47.3900         36182.000      54.635
  47.4900         36360.000      54.194
  47.5900         36893.000      54.955
  47.6900         38096.000      56.303
  47.7900         38815.000      55.588
  47.8900         38520.000      56.178
  47.9900         38284.000      56.089
  48.0900         37381.000      55.444
  48.1900         36556.000      55.633
  48.2900         36454.000      55.489
  48.3900         36317.000      54.854
  48.4900         36222.000      54.443
  48.5900         36457.000      54.964
  48.6900         35914.000      54.818
  48.7900         36365.000      54.056
  48.8900         36176.000      54.534
  48.9900         36252.000      55.018
  49.0900         36142.000      54.936
  49.1900         36391.000      54.927
  49.2900         36020.000      54.525
  49.3900         36123.000      54.745
  49.4900         36202.000      54.571
  49.5900         36133.000      54.945
  49.6900         36202.000      54.845
  49.7900         36234.000      54.717
  49.8900         36348.000      54.955
  49.9900         36031.000      54.240
  50.0900         36433.000      55.000
  50.1900         36374.000      55.299
  50.2900         36037.000      55.335
  50.3900         36217.000      54.009
  50.4900         36562.000      55.009
  50.5900         36382.000      54.918
  50.6900         36478.000      55.740
  50.7900         36097.000      55.453
  50.8900         36001.000      54.249
  50.9900         36311.000      54.424
  51.0900         36133.000      54.900
  51.1900         35573.000      53.675
  51.2900         36239.000      55.045
  51.3900         36531.000      54.845
  51.4900         36434.000      55.127
  51.5900         36877.000      55.308
  51.6900         36820.000      55.091
  51.7900         37374.000      56.675
  51.8900         38522.000      56.622
  51.9900         40183.000      57.948
  52.0900         42750.000      59.691
  52.1900         46023.000      62.306
  52.2900         50004.000      64.397
  52.3900         52320.000      66.257
  52.4900         51345.000      65.788
  52.5900         47810.000      62.378
  52.6900         44090.000      60.910
  52.7900         40678.000      58.949
  52.8900         38752.000      57.219
  52.9900         37447.000      55.471
  53.0900         37115.000      55.525
  53.1900         36681.000      55.920
  53.2900         36626.000      55.263
  53.3900         36332.000      54.203
  53.4900         36545.000      55.426
  53.5900         36594.000      54.982
  53.6900         36187.000      54.424
  53.7900         36684.000      55.027
  53.8900         36582.000      55.272
  53.9900         36193.000      55.570
  54.0900         36372.000      55.480
  54.1900         36012.000      54.479
  54.2900         36062.000      54.259
  54.3900         36014.000      54.982
  54.4900         36489.000      54.927
  54.5900         35834.000      54.991
  54.6900         36257.000      54.525
  54.7900         36289.000      55.929
  54.8900         36337.000      55.064
  54.9900         35986.000      55.281
  55.0900         36394.000      54.589
  55.1900         36132.000      55.036
  55.2900         36478.000      54.323
  55.3900         36316.000      55.426
  55.4900         36234.000      55.254
  55.5900         36080.000      53.907
  55.6900         36379.000      54.397
  55.7900         36436.000      54.900
  55.8900         36147.000      55.731
  55.9900         36519.000      55.642
  56.0900         36707.000      55.624
  56.1900         36110.000      54.964
  56.2900         36054.000      55.009
  56.3900         35944.000      53.731
  56.4900         36289.000      55.946
  56.5900         36177.000      55.534
  56.6900         36167.000      55.000
  56.7900         36082.000      55.534
  56.8900         35797.000      54.387
  56.9900         36178.000      55.245
  57.0900         35987.000      54.443
  57.1900         36139.000      55.561
  57.2900         35981.000      55.191
  57.3900         36517.000      55.471
  57.4900         35886.000      54.525
  57.5900         35741.000      54.213
  57.6900         35904.000      55.884
  57.7900         36191.000      54.845
  57.8900         36155.000      55.669
  57.9900         36222.000      54.690
  58.0900         35689.000      54.009
  58.1900         35803.000      54.387
  58.2900         36030.000      55.145
  58.3900         35975.000      55.082
  58.4900         36017.000      55.073
  58.5900         35723.000      54.009
  58.6900         36055.000      55.118
  58.7900         36336.000      55.803
  58.8900         36491.000      54.964
  58.9900         35835.000      55.408
  59.0900         35659.000      54.708
  59.1900         36424.000      55.272
  59.2900         36120.000      54.955
  59.3900         36192.000      54.653
  59.4900         36078.000      54.046
  59.5900         36392.000      54.772
  59.6900         36300.000      54.827
  59.7900         36562.000      55.109
  59.8900         36006.000      55.236
  59.9900         36037.000      55.200
  60.0900         36329.000      55.245
  60.1900         36333.000      54.791
  60.2900         36250.000      54.763
  60.3900         36400.000      55.055
  60.4900         36659.000      55.317
  60.5900         36307.000      55.552
  60.6900         36609.000      55.543
  60.7900         36317.000      55.471
  60.8900         36546.000      54.286
  60.9900         36463.000      55.145
  61.0900         36540.000      55.118
  61.1900         36403.000      54.672
  61.2900         37201.000      55.145
  61.3900         37058.000      55.245
  61.4900         37155.000      56.062
  61.5900         37868.000      56.454
  61.6900         38480.000      57.140
  61.7900         39604.000      58.344
  61.8900         41457.000      59.135
  61.9900         43516.000      59.649
  62.0900         46398.000      61.417
  62.1900         48627.000      63.506
  62.2900         50028.000      64.854
  62.3900         50450.000      64.792
  62.4900         49073.000      64.405
  62.5900         47363.000      62.482
  62.6900         44246.000      60.877
  62.7900         42098.000      59.102
  62.8900         39856.000      57.559
  62.9900         38718.000      57.306
  63.0900         37780.000      56.143
  63.1900         37714.000      56.833
  63.2900         37095.000      55.408
  63.3900         36755.000      55.758
  63.4900         36945.000      55.785
  63.5900         37038.000      55.884
  63.6900         36917.000      55.009
  63.7900         37244.000      55.615
  63.8900         36900.000      55.946
  63.9900         37683.000      56.400
  64.0900         37918.000      56.542
  64.1900         38195.000      56.347
  64.2900         38791.000      57.254
  64.3900         39844.000      57.367
  64.4900         41539.000      59.590
  64.5900         44486.000      61.392
  64.6900         49489.000      64.117
  64.7900         58397.000      68.920
  64.8900         70234.000      77.537
  64.9900         84889.000      83.839
  65.0900        100630.000      91.662
  65.1900        118439.000     100.548
  65.2900        134618.000     105.314
  65.3900        143863.000     109.147
  65.4900        144926.000     110.630
  65.5900        136758.000     106.602
  65.6900        125274.000     102.230
  65.7900        108092.000      95.137
  65.8900         88627.000      85.988
  65.9900         71450.000      77.000
  66.0900         58560.000      70.000
  66.1900         49763.000      64.374
  66.2900         44682.000      60.721
  66.3900         42198.000      59.481
  66.4900         40167.000      57.009
  66.5900         38582.000      56.471
  66.6900         38492.000      57.096
  66.7900         37579.000      56.241
  66.8900         37357.000      56.223
  66.9900         37130.000      55.570
  67.0900         36666.000      55.606
  67.1900         36225.000      54.973
  67.2900         36308.000      55.390
  67.3900         36157.000      54.882
  67.4900         36409.000      55.344
  67.5900         36402.000      55.408
  67.6900         36728.000      55.955
  67.7900         36310.000      54.452
  67.8900         36527.000      55.453
  67.9900         36283.000      54.882
  68.0900         35787.000      54.681
  68.1900         35770.000      54.589
  68.2900         35326.000      54.644
  68.3900         35528.000      54.681
  68.4900         35353.000      55.191
  68.5900         35080.000      54.056
  68.6900         35138.000      53.740
  68.7900         35192.000      54.213
  68.8900         34999.000      53.554
  68.9900         34698.000      53.385
  69.0900         35280.000      54.452
  69.1900         34874.000      54.332
  69.2900         34877.000      54.213
  69.3900         34975.000      53.777
  69.4900         34919.000      53.981
  69.5900         34963.000      54.882
  69.6900         34884.000      54.129
  69.7900         35104.000      53.972
  69.8900         34717.000      53.805
  69.9900         34693.000      53.451
  70.0900         34492.000      53.879
  70.1900         35025.000      54.277
  70.2900         34562.000      53.320
  70.3900         34725.000      54.818
  70.4900         34606.000      53.516
  70.5900         34511.000      54.424
  70.6900         34026.000      53.926
  70.7900         34982.000      54.240
  70.8900         35001.000      53.470
  70.9900         34944.000      54.397
  71.0900         34617.000      54.000
  71.1900         35239.000      54.342
  71.2900         35552.000      54.139
  71.3900         36081.000      54.534
  71.4900         36042.000      55.543
  71.5900         36872.000      55.326
  71.6900         37040.000      55.606
  71.7900         37828.000      56.630
  71.8900         37935.000      55.937
  71.9900         38138.000      56.036
  72.0900         38223.000      55.740
  72.1900         38537.000      56.471
  72.2900         38084.000      55.435
  72.3900         37811.000      56.462
  72.4900         37400.000      54.955
  72.5900         37023.000      55.218
  72.6900         36500.000      54.553
  72.7900         36203.000      54.259
  72.8900         35745.000      54.277
  72.9900         35786.000      54.681
  73.0900         35425.000      53.488
  73.1900         35187.000      53.768
  73.2900         35179.000      54.626
  73.3900         35187.000      54.754
  73.4900         34856.000      55.353
  73.5900         35023.000      54.028
  73.6900         35210.000      53.805
  73.7900         35111.000      53.944
  73.8900         34859.000      54.763
  73.9900         34793.000      53.572
  74.0900         34853.000      55.200
  74.1900         34472.000      54.074
  74.2900         34647.000      53.535
  74.3900         34416.000      53.852
  74.4900         34431.000      53.047
  74.5900         34504.000      53.991
  74.6900         34304.000      53.273
  74.7900         34658.000      53.423
  74.8900         34498.000      53.563
  74.9900         34671.000      53.675
  75.0900         34631.000      53.572
  75.1900         34854.000      53.656
  75.2900         34653.000      53.656
  75.3900         35086.000      53.123
  75.4900         35460.000      55.281
  75.5900         35695.000      54.443
  75.6900         36203.000      54.781
  75.7900         36268.000      55.471
  75.8900         36995.000      55.408
  75.9900         38159.000      57.507
  76.0900         39646.000      57.254
  76.1900         42483.000      59.641
  76.2900         46561.000      62.849
  76.3900         52969.000      66.430
  76.4900         61112.000      71.603
  76.5900         71003.000      78.090
  76.6900         83085.000      83.457
  76.7900         94432.000      88.747
  76.8900        107633.000      95.818
  76.9900        122057.000     100.881
  77.0900        132073.000     105.376
  77.1900        138038.000     107.666
  77.2900        138634.000     108.120
  77.3900        134115.000     106.522
  77.4900        124624.000     102.127
  77.5900        112582.000      96.582
  77.6900         99309.000      90.796
  77.7900         85457.000      84.374
  77.8900         72124.000      76.896
  77.9900         60590.000      71.610
  78.0900         51901.000      66.461
  78.1900         47030.000      63.135
  78.2900         42818.000      59.758
  78.3900         40379.000      58.592
  78.4900         38969.000      56.613
  78.5900         37201.000      55.127
  78.6900         36699.000      55.946
  78.7900         35940.000      54.222
  78.8900         35547.000      53.740
  78.9900         35255.000      53.619
  79.0900         35403.000      54.626
  79.1900         35050.000      53.460
  79.2900         35220.000      54.544
  79.3900         34945.000      53.768
  79.4900         34947.000      53.432
  79.5900         34958.000      53.796
  79.6900         34678.000      54.046
  79.7900         34182.000      53.188
  79.8900         33515.000      52.259
  79.9900         34036.000      53.963
  80.0900         33943.000      53.113
  80.1900         33544.000      52.297
  80.2900         33934.000      54.102
  80.3900         33617.000      52.773
  80.4900         33729.000      53.507
  80.5900         33431.000      52.583
  80.6900         33399.000      53.085
  80.7900         33036.000      51.778
  80.8900         33637.000      53.188
  80.9900         33238.000      52.526
  81.0900         33549.000      53.028
  81.1900         33716.000      52.849
  81.2900         33223.000      52.479
  81.3900         33247.000      53.981
  81.4900         32890.000      52.858
  81.5900         33422.000      53.917
  81.6900         33400.000      53.395
  81.7900         33024.000      53.395
  81.8900         33200.000      52.517
  81.9900         33457.000      52.868
  82.0900         33001.000      52.421
  82.1900         32840.000      52.316
  82.2900         33077.000      52.154
  82.3900         33324.000      52.593
  82.4900         33048.000      52.355
  82.5900         33173.000      52.612
  82.6900         33000.000      52.896
  82.7900         33625.000      53.282
  82.8900         32885.000      52.297
  82.9900         33130.000      52.868
  83.0900         33151.000      52.393
  83.1900         32967.000      53.000
  83.2900         32958.000      52.858
  83.3900         33147.000      51.884
  83.4900         33069.000      52.858
  83.5900         33017.000      52.726
  83.6900         32841.000      51.643
  83.7900         32934.000      52.574
  83.8900         33302.000      51.381
  83.9900         32698.000      52.096
  84.0900         33288.000      52.288
  84.1900         32990.000      52.154
  84.2900         33096.000      52.134
  84.3900         33220.000      52.877
  84.4900         33595.000      52.906
  84.5900         33995.000      53.066
  84.6900         34482.000      54.653
  84.7900         35208.000      54.699
  84.8900         35532.000      53.917
  84.9900         36696.000      54.727
  85.0900         37611.000      55.705
  85.1900         38257.000      56.356
  85.2900         39317.000      57.671
  85.3900         40300.000      57.315
  85.4900         40840.000      58.267
  85.5900         41654.000      58.592
  85.6900         41856.000      59.431
  85.7900         41985.000      58.523
  85.8900         41063.000      58.472
  85.9900         40596.000      58.523
  86.0900         39488.000      57.862
  86.1900         38358.000      56.666
  86.2900         37179.000      56.054
  86.3900         36323.000      54.754
  86.4900         35140.000      54.781
  86.5900         34594.000      53.207
  86.6900         34210.000      54.111
  86.7900         33258.000      52.536
  86.8900         33127.000      53.235
  86.9900         33237.000      52.316
  87.0900         32736.000      52.316
  87.1900         32419.000      51.166
  87.2900         33027.000      53.301
  87.3900         32568.000      51.633
  87.4900         32351.000      51.643
  87.5900         32615.000      51.923
  87.6900         32510.000      52.297
  87.7900         32430.000      52.278
  87.8900         32556.000      51.942
  87.9900         32449.000      52.507
  88.0900         32979.000      52.792
  88.1900         33179.000      52.364
  88.2900         33212.000      52.355
  88.3900         33895.000      53.385
  88.4900         33720.000      52.697
  88.5900         33892.000      52.612
  88.6900         33576.000      53.339
  88.7900         33449.000      53.179
  88.8900         33107.000      52.086
  88.9900         33347.000      53.151
  89.0900         33163.000      52.288
  89.1900         32884.000      52.811
  89.2900         32865.000      52.431
  89.3900         32533.000      51.604
  89.4900         32296.000      51.923
  89.5900         32414.000      52.735
  89.6900         32235.000      51.410
  89.7900         32321.000      51.894
  89.8900         32485.000      52.355
  89.9900         32423.000      52.431
  90.0900         32169.000      51.990
  90.1900         32522.000      52.029
  90.2900         32544.000      52.517
  90.3900         32619.000      52.507
  90.4900         32501.000      52.134
  90.5900         32443.000      52.868
  90.6900         32752.000      52.688
  90.7900         32911.000      52.038
  90.8900         32895.000      52.678
  90.9900         32667.000      51.730
  91.0900         32460.000      51.711
  91.1900         32445.000      52.412
  91.2900         32803.000      52.230
  91.3900         32266.000      51.215
  91.4900         31972.000      51.127
  91.5900         32138.000      52.536
  91.6900         32425.000      52.716
  91.7900         32335.000      51.971
  91.8900         32077.000      52.211
  91.9900         32101.000      51.643
  92.0900         32096.000      52.783
  92.1900         31975.000      52.421
  92.2900         32278.000      51.836
  92.3900         32204.000      52.288
  92.4900         32168.000      50.833
  92.5900         32041.000      51.740
  92.6900         32110.000      50.922
  92.7900         31883.000      51.730
  92.8900         32248.000      51.720
  92.9900         32156.000      51.643
  93.0900         32077.000      52.115
  93.1900         32243.000      51.807
  93.2900         31886.000      51.556
  93.3900         32159.000      51.711
  93.4900         32131.000      50.715
  93.5900         31898.000      51.371
  93.6900         32159.000      52.460
  93.7900         32003.000      51.459
  93.8900         31914.000      51.846
  93.9900         31658.000      51.740
  94.0900         32451.000      52.545
  94.1900         32336.000      51.029
  94.2900         31852.000      51.313
  94.3900         32188.000      51.546
  94.4900         32250.000      52.307
  94.5900         32510.000      51.293
  94.6900         32169.000      52.058
  94.7900         32197.000      51.235
  94.8900         32001.000      52.640
  94.9900         32468.000      52.887
  95.0900         32352.000      51.633
  95.1900         32241.000      51.614
  95.2900         31861.000      52.249
  95.3900         31925.000      51.585
  95.4900         32127.000      51.254
  95.5900         32053.000      51.865
  95.6900         32079.000      52.192
  95.7900         32501.000      52.574
  95.8900         32804.000      52.640
  95.9900         32483.000      52.830
  96.0900         32463.000      51.010
  96.1900         32809.000      51.575
  96.2900         32527.000      52.612
  96.3900         32767.000      52.735
  96.4900         32748.000      52.000
  96.5900         32556.000      51.284
  96.6900         32929.000      51.913
  96.7900         32572.000      51.225
  96.8900         32391.000      51.682
  96.9900         32200.000      51.137
  97.0900         32164.000      52.192
  97.1900         32101.000      51.245
  97.2900         31957.000      50.804
  97.3900         32247.000      52.240
  97.4900         31946.000      50.941
  97.5900         32158.000      52.479
  97.6900         32298.000      51.846
  97.7900         31841.000      51.400
  97.8900         31925.000      52.507
  97.9900         32112.000      51.952
  98.0900         32046.000      50.892
  98.1900         31995.000      52.355
  98.2900         32495.000      51.817
  98.3900         32358.000      52.202
  98.4900         32381.000      51.778
  98.5900         32609.000      51.536
  98.6900         32587.000      52.517
  98.7900         32492.000      51.807
  98.8900         32728.000      51.205
  98.9900         32663.000      52.000
  99.0900         33127.000      51.913
  99.1900         33320.000      52.488
  99.2900         33237.000      53.235
  99.3900         33677.000      52.678
  99.4900         34265.000      53.526
  99.5900         34593.000      53.038
  99.6900         34478.000      53.357
  99.7900         34854.000      54.019
  99.8900         34691.000      53.842
  99.9900         34642.000      53.395
 100.0900         34265.000      54.580
 100.1900         34056.000      53.479
 100.2900         33340.000      53.009
 100.3900         33304.000      53.273
 100.4900         33348.000      53.085
 100.5900         32980.000      52.374
 100.6900         32222.000      51.730
 100.7900         32669.000      51.923
 100.8900         32671.000      51.633
 100.9900         32603.000      51.769
 101.0900         32427.000      51.662
 101.1900         32241.000      52.431
 101.2900         32002.000      52.029
 101.3900         32275.000      52.058
 101.4900         32003.000      51.575
 101.5900         32075.000      52.067
 101.6900         32447.000      51.459
 101.7900         32342.000      51.633
 101.8900         32074.000      51.798
 101.9900         32295.000      52.345
 102.0900         31971.000      52.297
 102.1900         31917.000      51.971
 102.2900         32199.000      51.894
 102.3900         32412.000      52.106
 102.4900         32382.000      51.952
 102.5900         32095.000      52.077
 102.6900         31973.000      51.439
 102.7900         32111.000      52.773
 102.8900         31903.000      51.352
 102.9900         31803.000      51.575
 103.0900         31951.000      50.606
 103.1900         32016.000      51.166
 103.2900         32003.000      52.163
 103.3900         31872.000      50.695
 103.4900         31765.000      52.019
 103.5900         32237.000      51.933
 103.6900         32162.000      51.029
 103.7900         31880.000      51.147
 103.8900         32033.000      51.527
 103.9900         31853.000      51.381
 104.0900         32271.000      52.507
 104.1900         32140.000      53.085
 104.2900         31904.000      51.284
 104.3900         32216.000      52.067
 104.4900         32129.000      51.952
 104.5900         32063.000      51.507
 104.6900         31677.000      50.784
 104.7900         32305.000      52.000
 104.8900         32243.000      52.048
 104.9900         32195.000      50.675
 105.0900         32242.000      51.923
 105.1900         32475.000      52.106
 105.2900         32201.000      52.849
 105.3900         32628.000      51.971
 105.4900         32547.000      51.701
 105.5900         32824.000      52.316
 105.6900         32742.000      51.672
 105.7900         32735.000      52.106
 105.8900         32886.000      52.058
 105.9900         32952.000      51.904
 106.0900         32964.000      52.583
 106.1900         33630.000      52.707
 106.2900         33709.000      52.934
 106.3900         34096.000      54.369
 106.4900         34913.000      53.787
 106.5900         36079.000      55.200
 106.6900         37260.000      55.955
 106.7900         38719.000      57.070
 106.8900         40136.000      57.853
 106.9900         42267.000      60.299
 107.0900         44359.000      60.498
 107.1900         46599.000      62.801
 107.2900         49218.000      64.420
 107.3900         51820.000      66.843
 107.4900         54736.000      66.970
 107.5900         57596.000      69.793
 107.6900         60950.000      71.253
 107.7900         63609.000      73.267
 107.8900         66524.000      75.000
 107.9900         68371.000      75.941
 108.0900         70642.000      77.885
 108.1900         71970.000      77.337
 108.2900         71444.000      76.688
 108.3900         72345.000      77.981
 108.4900         71560.000      77.640
 108.5900         69112.000      75.717
 108.6900         67866.000      75.087
 108.7900         65345.000      74.122
 108.8900         61376.000      71.965
 108.9900         58293.000      69.649
 109.0900         55992.000      68.403
 109.1900         53005.000      66.302
 109.2900         50249.000      64.428
 109.3900         47380.000      63.340
 109.4900         45165.000      61.351
 109.5900         42633.000      58.788
 109.6900         40662.000      58.172
 109.7900         38460.000      56.551
 109.8900         37165.000      55.561
 109.9900         36145.000      54.626
 110.0900         35089.000      54.351
 110.1900         34385.000      53.413
 110.2900         33710.000      53.432
 110.3900         33340.000      52.906
 110.4900         33075.000      52.678
 110.5900         32871.000      52.526
 110.6900         32634.000      51.933
 110.7900         32521.000      51.371
 110.8900         32245.000      51.575
 110.9900         32677.000      52.981
 111.0900         32329.000      51.894
 111.1900         32303.000      51.749
 111.2900         32048.000      52.278
 111.3900         32088.000      51.894
 111.4900         32288.000      51.517
 111.5900         31896.000      51.942
 111.6900         32026.000      50.951
 111.7900         32195.000      52.583
 111.8900         32241.000      51.827
 111.9900         31974.000      52.192
 112.0900         32466.000      51.817
 112.1900         31990.000      52.144
 112.2900         31995.000      52.269
 112.3900         32172.000      51.565
 112.4900         32105.000      51.923
 112.5900         32092.000      51.556
 112.6900         32614.000      52.019
 112.7900         32756.000      52.345
 112.8900         32364.000      52.631
 112.9900         32666.000      51.332
 113.0900         32183.000      51.536
 113.1900         32444.000      52.288
 113.2900         32398.000      52.383
 113.3900         32409.000      51.865
 113.4900         32424.000      52.383
 113.5900         32257.000      51.575
 113.6900         32325.000      52.345
 113.7900         32168.000      51.624
 113.8900         32278.000      52.173
 113.9900         32321.000      52.230
 114.0900         32325.000      51.498
 114.1900         31808.000      50.882
 114.2900         32097.000      52.115
 114.3900         31909.000      50.577
 114.4900         31606.000      50.863
 114.5900         32001.000      52.249
 114.6900         31809.000      51.604
 114.7900         31651.000      51.875
 114.8900         31713.000      51.400
 114.9900         31537.000      50.725
 115.0900         31186.000      51.235
 115.1900         31401.000      51.778
 115.2900         31368.000      50.892
 115.3900         31354.000      51.517
 115.4900         31340.000      51.264
 115.5900         31193.000      51.865
 115.6900         31417.000      51.865
 115.7900         31347.000      51.098
 115.8900         31120.000      50.764
 115.9900         31239.000      51.410
 116.0900         31232.000      50.646
 116.1900         31602.000      51.981
 116.2900         31217.000      51.254
 116.3900         31022.000      51.856
 116.4900         31744.000      50.349
 116.5900         31360.000      51.430
 116.6900         30925.000      50.941
 116.7900         31364.000      51.740
 116.8900         31611.000      51.029
 116.9900         31428.000      51.118
 117.0900         31365.000      51.108
 117.1900         31582.000      51.875
 117.2900         31381.000      51.274
 117.3900         31551.000      50.319
 117.4900         31118.000      50.259
 117.5900         31288.000      50.557
 117.6900         31208.000      50.922
 117.7900         31300.000      51.069
 117.8900         31602.000      51.078
 117.9900         31597.000      51.565
 118.0900         31148.000      51.352
 118.1900         31577.000      50.537
 118.2900         31556.000      50.980
 118.3900         31618.000      51.865
 118.4900         31434.000      51.186
 118.5900         31667.000      51.449
 118.6900         31820.000      51.059
 118.7900         31466.000      50.823
 118.8900         31396.000      50.656
 118.9900         31658.000      51.274
 119.0900         31499.000      51.245
 119.1900         31821.000      51.643
 119.2900         31850.000      51.865
 119.3900         31713.000      51.788
 119.4900         31420.000      50.269
 119.5900         31900.000      51.759
 119.6900         31757.000      52.067
 119.7900         31856.000      51.691
 119.8900         32203.000      52.144
 119.9900         32169.000      52.010
 120.0900         31792.000      51.069
 120.1900         32207.000      52.297
 120.2900         32342.000      52.545
 120.3900         32349.000      51.990
 120.4900         32549.000      52.077
 120.5900         32649.000      52.211
 120.6900         32896.000      52.297
 120.7900         33293.000      52.154
 120.8900         33668.000      52.019
 120.9900         34227.000      53.217
 121.0900         34540.000      53.132
 121.1900         35381.000      53.907
 121.2900         36572.000      54.818
 121.3900         37927.000      57.061
 121.4900         39288.000      56.851
 121.5900         41458.000      59.523
 121.6900         43592.000      60.150
 121.7900         45883.000      61.294
 121.8900         48826.000      63.087
 121.9900         52009.000      65.962
 122.0900         55312.000      68.513
 122.1900         58663.000      70.413
 122.2900         61851.000      72.471
 122.3900         66441.000      73.946
 122.4900         70686.000      76.974
 122.5900         74921.000      78.243
 122.6900         80202.000      81.486
 122.7900         85017.000      84.676
 122.8900         89722.000      85.959
 122.9900         94988.000      88.346
 123.0900         99719.000      91.247
 123.1900        105103.000      93.402
 123.2900        110050.000      95.362
 123.3900        114785.000      97.704
 123.4900        119556.000      99.840
 123.5900        122259.000     101.760
 123.6900        124941.000     102.430
 123.7900        126257.000     102.927
 123.8900        127769.000     102.562
 123.9900        126893.000     103.121
 124.0900        126648.000     102.347
 124.1900        123473.000     102.093
 124.2900        121844.000     100.931
 124.3900        117937.000      98.752
 124.4900        112706.000      97.401
 124.5900        108728.000      95.906
 124.6900        101602.000      91.733
 124.7900         95531.000      88.504
 124.8900         90900.000      86.568
 124.9900         85750.000      85.282
 125.0900         81751.000      82.620
 125.1900         77867.000      81.130
 125.2900         72862.000      77.498
 125.3900         68187.000      75.333
 125.4900         64136.000      73.137
 125.5900         59646.000      70.541
 125.6900         55137.000      68.659
 125.7900         52276.000      65.962
 125.8900         48335.000      63.467
 125.9900         45744.000      61.847
 126.0900         43551.000      60.926
 126.1900         41640.000      59.355
 126.2900         39864.000      57.723
 126.3900         38586.000      57.131
 126.4900         37664.000      56.098
 126.5900         36378.000      55.390
 126.6900         36067.000      54.672
 126.7900         35334.000      53.582
 126.8900         34785.000      53.712
 126.9900         34308.000      53.535
 127.0900         33841.000      52.526
 127.1900         33573.000      53.057
 127.2900         33372.000      52.173
 127.3900         32670.000      52.134
 127.4900         32528.000      51.981
 127.5900         32511.000      52.211
 127.6900         32289.000      51.498
 127.7900         31667.000      51.039
 127.8900         31700.000      51.624
 127.9900         31579.000      52.307
 128.0900         31727.000      51.971
 128.1900         31396.000      51.069
 128.2900         31297.000      50.468
 128.3900         31531.000      51.884
 128.4900         31185.000      50.725
 128.5900             2.000       1.000
 128.6900             6.000       1.000
