XYDATA SparksLave Co3O4-quenched_700_300K 
INTER        1       1       0     0.100000
TEMP       298.788      299.998      300.000
! d1b Date 15-Nov-11 Time 02:20:23 Run 130009 129998>130009
! d1b Date 15-Nov-11 Time 02:20:23 Run 130009 129998>130009
! Monitor/counts, Counting time/sec:  1.09670e+007 1.09670e+007
   0.7900             5.000       1.000
   0.8900             3.000       1.000
   0.9900          1951.000      13.454
   1.0900          2009.000      11.916
   1.1900          1871.000      11.874
   1.2900          1838.000      12.961
   1.3900          1911.000      12.450
   1.4900          1861.000      12.884
   1.5900          1988.000      13.115
   1.6900          2074.000      12.923
   1.7900          2536.000      13.892
   1.8900          3971.000      19.313
   1.9900          6695.000      23.367
   2.0900          8913.000      28.125
   2.1900         11106.000      30.430
   2.2900         14135.000      34.843
   2.3900         17928.000      39.395
   2.4900         21604.000      42.332
   2.5900         25611.000      46.583
   2.6900         28996.000      48.724
   2.7900         32487.000      52.868
   2.8900         35053.000      53.684
   2.9900         37900.000      55.561
   3.0900         40795.000      58.146
   3.1900         43377.000      58.643
   3.2900         45884.000      61.555
   3.3900         46002.000      61.620
   3.4900         44967.000      61.871
   3.5900         44917.000      61.237
   3.6900         44529.000      60.951
   3.7900         43988.000      59.983
   3.8900         42522.000      59.808
   3.9900         43750.000      60.432
   4.0900         43540.000      60.440
   4.1900         43465.000      59.942
   4.2900         43325.000      59.933
   4.3900         43973.000      60.951
   4.4900         44289.000      60.836
   4.5900         45440.000      61.425
   4.6900         47413.000      62.968
   4.7900         48957.000      63.253
   4.8900         50683.000      65.284
   4.9900         52284.000      65.818
   5.0900         54878.000      67.402
   5.1900         56242.000      67.720
   5.2900         57896.000      68.927
   5.3900         59966.000      70.512
   5.4900         61568.000      72.250
   5.5900         63937.000      72.519
   5.6900         65231.000      73.722
   5.7900         66610.000      74.243
   5.8900         68485.000      75.822
   5.9900         69817.000      76.007
   6.0900         71011.000      76.609
   6.1900         72055.000      77.666
   6.2900         71367.000      76.740
   6.3900         71591.000      77.692
   6.4900         71917.000      78.000
   6.5900         71043.000      76.498
   6.6900         70755.000      77.136
   6.7900         70143.000      76.079
   6.8900         69872.000      76.857
   6.9900         69593.000      75.750
   7.0900         68489.000      76.007
   7.1900         68018.000      75.881
   7.2900         67267.000      75.472
   7.3900         66854.000      74.398
   7.4900         66126.000      74.081
   7.5900         65470.000      73.926
   7.6900         64084.000      72.815
   7.7900         63752.000      73.151
   7.8900         62624.000      72.849
   7.9900         61599.000      71.979
   8.0900         61170.000      71.183
   8.1900         60143.000      70.958
   8.2900         59366.000      70.711
   8.3900         58091.000      69.541
   8.4900         57405.000      69.405
   8.5900         56443.000      67.631
   8.6900         56170.000      67.646
   8.7900         55229.000      68.250
   8.8900         54298.000      66.761
   8.9900         53384.000      67.157
   9.0900         52503.000      65.284
   9.1900         51435.000      65.856
   9.2900         51042.000      65.169
   9.3900         49907.000      64.730
   9.4900         48904.000      63.545
   9.5900         48801.000      63.867
   9.6900         47634.000      63.340
   9.7900         47213.000      62.706
   9.8900         45884.000      61.685
   9.9900         45158.000      60.125
  10.0900         44155.000      60.324
  10.1900         43491.000      59.733
  10.2900         42697.000      60.100
  10.3900         41491.000      58.762
  10.4900         41467.000      58.378
  10.5900         40841.000      58.121
  10.6900         40187.000      58.737
  10.7900         39635.000      57.228
  10.8900         38742.000      57.236
  10.9900         39138.000      57.836
  11.0900         38942.000      56.524
  11.1900         38676.000      55.552
  11.2900         38200.000      55.615
  11.3900         38379.000      56.054
  11.4900         38342.000      56.321
  11.5900         38012.000      56.956
  11.6900         38147.000      57.140
  11.7900         38144.000      56.205
  11.8900         38301.000      56.666
  11.9900         37812.000      55.227
  12.0900         38135.000      56.498
  12.1900         37730.000      56.719
  12.2900         37935.000      55.758
  12.3900         37909.000      57.550
  12.4900         38196.000      56.921
  12.5900         38093.000      55.723
  12.6900         37808.000      56.551
  12.7900         37674.000      55.615
  12.8900         37702.000      55.982
  12.9900         37741.000      56.178
  13.0900         37441.000      55.036
  13.1900         37622.000      56.223
  13.2900         37504.000      55.857
  13.3900         37664.000      56.107
  13.4900         37472.000      54.973
  13.5900         37584.000      56.356
  13.6900         37999.000      57.053
  13.7900         37451.000      55.740
  13.8900         37659.000      56.613
  13.9900         37783.000      56.454
  14.0900         37289.000      55.946
  14.1900         37568.000      57.131
  14.2900         37542.000      56.489
  14.3900         37558.000      56.249
  14.4900         38197.000      56.939
  14.5900         37758.000      55.651
  14.6900         37256.000      55.606
  14.7900         37623.000      55.911
  14.8900         37559.000      54.955
  14.9900         38052.000      56.895
  15.0900         37387.000      54.845
  15.1900         37800.000      56.276
  15.2900         38509.000      55.525
  15.3900         38972.000      56.692
  15.4900         38703.000      56.524
  15.5900         38125.000      56.374
  15.6900         37910.000      55.362
  15.7900         37352.000      57.000
  15.8900         37444.000      55.009
  15.9900         37882.000      56.851
  16.0900         37769.000      56.276
  16.1900         37527.000      55.145
  16.2900         37580.000      56.877
  16.3900         37922.000      55.453
  16.4900         37486.000      56.232
  16.5900         37251.000      55.371
  16.6900         37191.000      54.781
  16.7900         37923.000      56.710
  16.8900         37349.000      55.812
  16.9900         37405.000      56.454
  17.0900         37303.000      56.338
  17.1900         37735.000      56.560
  17.2900         37847.000      56.276
  17.3900         37355.000      55.381
  17.4900         37550.000      56.648
  17.5900         37686.000      54.599
  17.6900         37728.000      55.082
  17.7900         37689.000      56.383
  17.8900         37382.000      55.758
  17.9900         37596.000      57.245
  18.0900         37779.000      56.045
  18.1900         37600.000      56.027
  18.2900         37388.000      56.178
  18.3900         37421.000      56.071
  18.4900         38102.000      56.080
  18.5900         37929.000      56.498
  18.6900         37982.000      56.062
  18.7900         37512.000      55.588
  18.8900         37673.000      56.276
  18.9900         37814.000      56.639
  19.0900         37336.000      56.178
  19.1900         37719.000      56.736
  19.2900         37663.000      55.489
  19.3900         37639.000      56.454
  19.4900         37492.000      55.127
  19.5900         37427.000      55.740
  19.6900         37523.000      56.400
  19.7900         37747.000      56.045
  19.8900         37918.000      56.542
  19.9900         37716.000      55.272
  20.0900         36909.000      55.507
  20.1900         37680.000      56.196
  20.2900         38267.000      55.955
  20.3900         37295.000      56.462
  20.4900         37557.000      56.303
  20.5900         37950.000      55.937
  20.6900         38353.000      56.930
  20.7900         37546.000      55.991
  20.8900         37922.000      55.326
  20.9900         37565.000      55.435
  21.0900         37670.000      55.893
  21.1900         37458.000      56.312
  21.2900         37532.000      55.830
  21.3900         37702.000      56.045
  21.4900         37476.000      56.018
  21.5900         37839.000      56.338
  21.6900         37644.000      55.920
  21.7900         37226.000      55.543
  21.8900         37621.000      55.893
  21.9900         37769.000      56.630
  22.0900         37689.000      56.763
  22.1900         37467.000      54.891
  22.2900         37511.000      56.241
  22.3900         37499.000      56.947
  22.4900         37340.000      55.561
  22.5900         37346.000      55.534
  22.6900         37594.000      56.241
  22.7900         37677.000      56.276
  22.8900         37735.000      56.187
  22.9900         37604.000      56.080
  23.0900         37580.000      55.946
  23.1900         37722.000      56.683
  23.2900         37789.000      56.071
  23.3900         37321.000      54.945
  23.4900         37328.000      55.893
  23.5900         37832.000      56.089
  23.6900         37577.000      55.955
  23.7900         37896.000      56.498
  23.8900         37843.000      57.393
  23.9900         38299.000      56.445
  24.0900         37548.000      56.045
  24.1900         37930.000      55.848
  24.2900         37635.000      56.409
  24.3900         37574.000      56.418
  24.4900         37509.000      56.560
  24.5900         37903.000      55.669
  24.6900         38128.000      55.570
  24.7900         37716.000      56.294
  24.8900         37712.000      56.098
  24.9900         37519.000      55.435
  25.0900         37586.000      56.196
  25.1900         37707.000      56.648
  25.2900         37802.000      55.767
  25.3900         38505.000      57.026
  25.4900         38396.000      56.071
  25.5900         37964.000      56.586
  25.6900         38013.000      56.692
  25.7900         38104.000      56.418
  25.8900         37761.000      55.660
  25.9900         37854.000      56.143
  26.0900         37653.000      56.116
  26.1900         38185.000      57.000
  26.2900         37762.000      56.027
  26.3900         37355.000      56.338
  26.4900         37907.000      56.639
  26.5900         37489.000      56.187
  26.6900         37955.000      56.480
  26.7900         37733.000      56.683
  26.8900         37658.000      55.263
  26.9900         37698.000      57.210
  27.0900         38023.000      56.160
  27.1900         37411.000      55.758
  27.2900         37811.000      55.785
  27.3900         37739.000      56.727
  27.4900         37937.000      55.740
  27.5900         37613.000      56.062
  27.6900         37503.000      55.749
  27.7900         37888.000      56.454
  27.8900         37942.000      56.294
  27.9900         37783.000      56.249
  28.0900         37839.000      55.353
  28.1900         37519.000      56.515
  28.2900         38339.000      56.965
  28.3900         37851.000      56.418
  28.4900         37913.000      56.982
  28.5900         37912.000      55.308
  28.6900         37940.000      56.071
  28.7900         37817.000      56.498
  28.8900         37986.000      56.089
  28.9900         38104.000      56.018
  29.0900         38281.000      56.507
  29.1900         38014.000      56.249
  29.2900         37532.000      55.145
  29.3900         37588.000      55.543
  29.4900         38163.000      57.489
  29.5900         37933.000      55.749
  29.6900         37988.000      56.089
  29.7900         38712.000      56.232
  29.8900         38975.000      56.982
  29.9900         38796.000      56.877
  30.0900         38855.000      56.365
  30.1900         38274.000      56.249
  30.2900         38451.000      56.639
  30.3900         38634.000      56.134
  30.4900         39002.000      56.569
  30.5900         38684.000      56.107
  30.6900         39222.000      56.560
  30.7900         39919.000      57.131
  30.8900         42190.000      59.540
  30.9900         47722.000      63.119
  31.0900         61721.000      71.764
  31.1900         78456.000      80.852
  31.2900         89292.000      86.608
  31.3900         84271.000      84.178
  31.4900         67774.000      74.760
  31.5900         51772.000      65.681
  31.6900         43546.000      59.983
  31.7900         40012.000      57.957
  31.8900         38979.000      56.771
  31.9900         38765.000      56.267
  32.0900         38630.000      55.946
  32.1900         38443.000      56.639
  32.2900         38154.000      55.857
  32.3900         38279.000      56.160
  32.4900         38118.000      56.107
  32.5900         38148.000      55.417
  32.6900         38288.000      56.018
  32.7900         38143.000      56.868
  32.8900         38157.000      55.991
  32.9900         37934.000      56.098
  33.0900         37943.000      56.205
  33.1900         37929.000      56.498
  33.2900         37821.000      56.080
  33.3900         37623.000      56.965
  33.4900         37696.000      55.964
  33.5900         37630.000      55.516
  33.6900         37926.000      55.731
  33.7900         38026.000      56.232
  33.8900         37656.000      55.812
  33.9900         38421.000      55.821
  34.0900         38150.000      56.912
  34.1900         38268.000      57.114
  34.2900         38370.000      56.329
  34.3900         38187.000      55.552
  34.4900         38328.000      57.393
  34.5900         37906.000      55.290
  34.6900         37676.000      55.803
  34.7900         37938.000      55.417
  34.8900         37768.000      55.937
  34.9900         37949.000      54.982
  35.0900         37976.000      57.158
  35.1900         37431.000      56.125
  35.2900         37843.000      56.009
  35.3900         37795.000      56.062
  35.4900         37788.000      55.785
  35.5900         37719.000      56.071
  35.6900         37720.000      55.893
  35.7900         37639.000      55.308
  35.8900         37842.000      56.391
  35.9900         38092.000      56.639
  36.0900         39763.000      56.930
  36.1900         42659.000      58.898
  36.2900         45766.000      60.721
  36.3900         45360.000      61.806
  36.4900         41942.000      58.489
  36.5900         39304.000      57.550
  36.6900         37931.000      55.902
  36.7900         38236.000      56.116
  36.8900         37717.000      56.196
  36.9900         37183.000      55.127
  37.0900         37640.000      56.232
  37.1900         37612.000      56.054
  37.2900         37497.000      54.909
  37.3900         37452.000      56.480
  37.4900         37899.000      56.947
  37.5900         37623.000      55.866
  37.6900         37286.000      55.489
  37.7900         37549.000      55.254
  37.8900         37210.000      57.079
  37.9900         37540.000      56.241
  38.0900         37533.000      54.736
  38.1900         37562.000      56.409
  38.2900         37222.000      55.399
  38.3900         37046.000      56.009
  38.4900         37632.000      55.785
  38.5900         36749.000      55.812
  38.6900         37308.000      55.669
  38.7900         37515.000      56.143
  38.8900         37232.000      55.254
  38.9900         37141.000      55.390
  39.0900         37324.000      55.714
  39.1900         37357.000      55.803
  39.2900         37425.000      56.116
  39.3900         37337.000      56.560
  39.4900         37166.000      55.245
  39.5900         37585.000      56.551
  39.6900         37908.000      56.205
  39.7900         37569.000      56.027
  39.8900         37879.000      56.807
  39.9900         37378.000      55.498
  40.0900         37258.000      55.272
  40.1900         37446.000      55.714
  40.2900         37304.000      56.196
  40.3900         37368.000      56.577
  40.4900         37264.000      55.606
  40.5900         37124.000      55.381
  40.6900         36907.000      55.794
  40.7900         36873.000      56.489
  40.8900         36990.000      55.353
  40.9900         37304.000      55.552
  41.0900         36847.000      55.740
  41.1900         37159.000      55.651
  41.2900         37054.000      56.062
  41.3900         37124.000      54.973
  41.4900         37336.000      56.418
  41.5900         36881.000      56.089
  41.6900         37685.000      55.435
  41.7900         36922.000      55.624
  41.8900         37005.000      55.911
  41.9900         37016.000      55.064
  42.0900         37385.000      56.134
  42.1900         36976.000      55.055
  42.2900         37079.000      55.866
  42.3900         37129.000      56.356
  42.4900         37029.000      56.267
  42.5900         36972.000      54.991
  42.6900         37033.000      55.281
  42.7900         37077.000      55.109
  42.8900         37188.000      55.073
  42.9900         37225.000      55.875
  43.0900         36855.000      55.082
  43.1900         36539.000      55.471
  43.2900         36722.000      55.435
  43.3900         36980.000      55.767
  43.4900         36945.000      55.127
  43.5900         36679.000      55.489
  43.6900         36978.000      55.937
  43.7900         37007.000      55.435
  43.8900         37343.000      55.902
  43.9900         36845.000      54.991
  44.0900         36787.000      55.642
  44.1900         36828.000      55.390
  44.2900         37076.000      55.426
  44.3900         36483.000      54.982
  44.4900         37157.000      56.125
  44.5900         37220.000      56.391
  44.6900         36874.000      55.362
  44.7900         37022.000      55.875
  44.8900         37104.000      56.089
  44.9900         36735.000      55.390
  45.0900         37119.000      55.172
  45.1900         36952.000      55.200
  45.2900         36805.000      56.107
  45.3900         37148.000      56.789
  45.4900         37010.000      55.857
  45.5900         36872.000      55.588
  45.6900         36664.000      54.717
  45.7900         36835.000      55.154
  45.8900         36800.000      55.362
  45.9900         36539.000      56.780
  46.0900         36692.000      55.227
  46.1900         36827.000      54.781
  46.2900         36625.000      55.263
  46.3900         36764.000      54.699
  46.4900         36838.000      54.891
  46.5900         37076.000      55.893
  46.6900         36799.000      55.272
  46.7900         37160.000      56.098
  46.8900         36507.000      54.295
  46.9900         36661.000      55.326
  47.0900         37034.000      56.418
  47.1900         37312.000      56.000
  47.2900         37071.000      55.136
  47.3900         37030.000      56.169
  47.4900         37314.000      55.579
  47.5900         37962.000      56.648
  47.6900         39726.000      57.637
  47.7900         40570.000      58.155
  47.8900         40140.000      57.402
  47.9900         39365.000      57.402
  48.0900         38012.000      55.749
  48.1900         37033.000      55.758
  48.2900         36965.000      55.991
  48.3900         36973.000      56.187
  48.4900         37010.000      56.859
  48.5900         37054.000      54.781
  48.6900         36552.000      55.082
  48.7900         37028.000      55.109
  48.8900         36762.000      55.435
  48.9900         37244.000      57.158
  49.0900         37168.000      56.169
  49.1900         36929.000      55.326
  49.2900         37134.000      55.408
  49.3900         37455.000      56.329
  49.4900         37029.000      56.445
  49.5900         36814.000      56.258
  49.6900         36497.000      55.027
  49.7900         36903.000      55.866
  49.8900         36948.000      56.745
  49.9900         37176.000      55.308
  50.0900         36849.000      55.435
  50.1900         37292.000      55.091
  50.2900         37059.000      55.245
  50.3900         37270.000      55.830
  50.4900         36555.000      56.045
  50.5900         37022.000      54.945
  50.6900         37181.000      55.767
  50.7900         37158.000      55.866
  50.8900         37090.000      55.902
  50.9900         36705.000      55.163
  51.0900         37139.000      55.955
  51.1900         37262.000      56.214
  51.2900         37206.000      55.127
  51.3900         36900.000      55.209
  51.4900         36881.000      55.687
  51.5900         37476.000      55.543
  51.6900         37313.000      56.391
  51.7900         38245.000      55.660
  51.8900         39955.000      58.241
  51.9900         42485.000      60.366
  52.0900         46360.000      63.388
  52.1900         52648.000      66.348
  52.2900         58351.000      69.914
  52.3900         59021.000      70.463
  52.4900         55990.000      67.224
  52.5900         50518.000      64.327
  52.6900         44516.000      61.123
  52.7900         40528.000      57.922
  52.8900         38391.000      56.152
  52.9900         37604.000      56.089
  53.0900         37271.000      56.338
  53.1900         37508.000      56.338
  53.2900         37233.000      55.109
  53.3900         36991.000      55.597
  53.4900         37103.000      55.615
  53.5900         37281.000      55.534
  53.6900         37045.000      55.489
  53.7900         37629.000      55.109
  53.8900         37277.000      54.836
  53.9900         37026.000      56.542
  54.0900         37078.000      55.408
  54.1900         36946.000      55.335
  54.2900         37094.000      55.767
  54.3900         36786.000      55.299
  54.4900         36918.000      55.516
  54.5900         37055.000      55.308
  54.6900         36991.000      55.444
  54.7900         37395.000      56.400
  54.8900         37620.000      56.098
  54.9900         37732.000      55.731
  55.0900         37561.000      56.267
  55.1900         37687.000      56.294
  55.2900         37636.000      55.218
  55.3900         36913.000      54.863
  55.4900         36881.000      54.397
  55.5900         37330.000      56.116
  55.6900         36899.000      54.717
  55.7900         37317.000      57.271
  55.8900         36730.000      55.435
  55.9900         36921.000      55.669
  56.0900         36938.000      55.866
  56.1900         36703.000      55.191
  56.2900         36938.000      55.145
  56.3900         37084.000      55.731
  56.4900         36950.000      54.608
  56.5900         37274.000      56.160
  56.6900         37134.000      55.794
  56.7900         36794.000      55.335
  56.8900         36799.000      55.145
  56.9900         37043.000      56.125
  57.0900         36818.000      55.453
  57.1900         36866.000      55.236
  57.2900         36950.000      56.169
  57.3900         36589.000      55.480
  57.4900         37049.000      55.767
  57.5900         36988.000      55.218
  57.6900         37132.000      54.800
  57.7900         37080.000      55.263
  57.8900         36853.000      55.118
  57.9900         36747.000      55.308
  58.0900         36983.000      55.308
  58.1900         37138.000      55.597
  58.2900         37022.000      54.406
  58.3900         37019.000      55.064
  58.4900         36637.000      54.690
  58.5900         36838.000      55.660
  58.6900         36952.000      55.516
  58.7900         36979.000      55.200
  58.8900         37120.000      56.178
  58.9900         37072.000      54.754
  59.0900         37123.000      55.326
  59.1900         37171.000      55.740
  59.2900         37088.000      55.055
  59.3900         37039.000      55.678
  59.4900         37288.000      55.570
  59.5900         37202.000      56.045
  59.6900         37089.000      55.803
  59.7900         37059.000      55.696
  59.8900         36800.000      55.218
  59.9900         37121.000      56.045
  60.0900         37274.000      55.982
  60.1900         36771.000      55.714
  60.2900         37020.000      55.525
  60.3900         37011.000      55.767
  60.4900         37047.000      56.027
  60.5900         36773.000      54.982
  60.6900         36893.000      55.588
  60.7900         37269.000      55.471
  60.8900         36827.000      55.281
  60.9900         37445.000      56.098
  61.0900         37443.000      56.258
  61.1900         37442.000      55.875
  61.2900         37780.000      56.294
  61.3900         37962.000      56.604
  61.4900         38062.000      55.893
  61.5900         38715.000      56.930
  61.6900         40386.000      58.241
  61.7900         42628.000      59.447
  61.8900         44908.000      61.539
  61.9900         47461.000      63.293
  62.0900         51154.000      65.038
  62.1900         55537.000      68.782
  62.2900         56648.000      68.833
  62.3900         56489.000      67.201
  62.4900         53858.000      67.335
  62.5900         50919.000      64.900
  62.6900         46724.000      62.530
  62.7900         42933.000      59.532
  62.8900         39873.000      58.017
  62.9900         38994.000      56.630
  63.0900         38075.000      55.516
  63.1900         37903.000      55.749
  63.2900         37600.000      55.920
  63.3900         37413.000      56.089
  63.4900         37441.000      56.223
  63.5900         37501.000      55.399
  63.6900         37358.000      56.622
  63.7900         37767.000      55.812
  63.8900         37684.000      55.624
  63.9900         38292.000      55.776
  64.0900         38319.000      56.763
  64.1900         38556.000      57.175
  64.2900         39099.000      56.991
  64.3900         39845.000      58.626
  64.4900         41501.000      58.429
  64.5900         45332.000      62.314
  64.6900         52383.000      66.573
  64.7900         64987.000      73.689
  64.8900         82431.000      82.958
  64.9900        102611.000      92.634
  65.0900        126237.000     102.874
  65.1900        152642.000     113.327
  65.2900        176790.000     121.454
  65.3900        185358.000     124.900
  65.4900        180291.000     122.102
  65.5900        166621.000     117.635
  65.6900        146941.000     110.982
  65.7900        120790.000     100.165
  65.8900         92680.000      87.138
  65.9900         69570.000      75.941
  66.0900         54811.000      66.798
  66.1900         47501.000      62.618
  66.2900         42791.000      58.958
  66.3900         40506.000      58.506
  66.4900         39199.000      55.812
  66.5900         38173.000      56.903
  66.6900         38068.000      56.798
  66.7900         37152.000      55.678
  66.8900         37324.000      56.347
  66.9900         37121.000      55.182
  67.0900         37161.000      55.561
  67.1900         36850.000      55.335
  67.2900         37120.000      55.399
  67.3900         36785.000      55.073
  67.4900         37162.000      55.344
  67.5900         37402.000      56.383
  67.6900         37536.000      56.214
  67.7900         37868.000      56.462
  67.8900         37665.000      56.533
  67.9900         36951.000      54.982
  68.0900         36900.000      55.615
  68.1900         36370.000      55.064
  68.2900         36261.000      56.169
  68.3900         35991.000      54.708
  68.4900         35815.000      55.127
  68.5900         35835.000      54.991
  68.6900         35541.000      54.781
  68.7900         35714.000      54.599
  68.8900         35892.000      54.763
  68.9900         35734.000      54.599
  69.0900         35949.000      54.599
  69.1900         35381.000      53.656
  69.2900         35616.000      53.376
  69.3900         35360.000      54.102
  69.4900         35620.000      54.699
  69.5900         35663.000      53.647
  69.6900         35593.000      55.453
  69.7900         35676.000      54.415
  69.8900         35281.000      54.222
  69.9900         35602.000      54.415
  70.0900         35590.000      53.544
  70.1900         35505.000      53.507
  70.2900         35833.000      54.873
  70.3900         35142.000      54.800
  70.4900         35413.000      54.102
  70.5900         35247.000      54.342
  70.6900         35701.000      54.378
  70.7900         35639.000      54.745
  70.8900         35482.000      54.927
  70.9900         35785.000      54.690
  71.0900         35995.000      54.102
  71.1900         36063.000      55.353
  71.2900         36443.000      55.371
  71.3900         37142.000      56.009
  71.4900         37553.000      55.498
  71.5900         37591.000      56.223
  71.6900         38061.000      55.911
  71.7900         38756.000      56.833
  71.8900         38997.000      57.567
  71.9900         39263.000      56.930
  72.0900         39513.000      57.905
  72.1900         39368.000      56.763
  72.2900         39239.000      57.254
  72.3900         38712.000      56.763
  72.4900         38132.000      56.294
  72.5900         37901.000      56.648
  72.6900         37372.000      56.347
  72.7900         36974.000      54.663
  72.8900         36637.000      55.254
  72.9900         35841.000      54.222
  73.0900         35785.000      55.000
  73.1900         35699.000      53.898
  73.2900         35289.000      53.842
  73.3900         35980.000      55.308
  73.4900         36133.000      55.344
  73.5900         36503.000      55.218
  73.6900         36119.000      53.907
  73.7900         36223.000      54.498
  73.8900         36215.000      55.055
  73.9900         35510.000      55.154
  74.0900         35285.000      54.342
  74.1900         34859.000      55.018
  74.2900         35129.000      53.842
  74.3900         35475.000      55.299
  74.4900         35121.000      54.489
  74.5900         34828.000      53.572
  74.6900         35075.000      54.139
  74.7900         35180.000      53.470
  74.8900         35376.000      54.727
  74.9900         35501.000      54.351
  75.0900         35181.000      54.342
  75.1900         36044.000      53.842
  75.2900         35824.000      54.945
  75.3900         35957.000      54.544
  75.4900         35774.000      55.362
  75.5900         35962.000      54.681
  75.6900         36274.000      55.272
  75.7900         36694.000      55.624
  75.8900         36831.000      55.426
  75.9900         37942.000      56.249
  76.0900         39290.000      57.359
  76.1900         43035.000      59.624
  76.2900         48556.000      63.765
  76.3900         57068.000      68.301
  76.4900         68429.000      76.033
  76.5900         82242.000      82.601
  76.6900         98099.000      90.559
  76.7900        114818.000      98.595
  76.8900        134139.000     104.990
  76.9900        155456.000     113.424
  77.0900        171844.000     119.887
  77.1900        177549.000     121.902
  77.2900        175007.000     120.648
  77.3900        166883.000     118.381
  77.4900        151287.000     111.122
  77.5900        133309.000     105.447
  77.6900        114441.000      96.768
  77.7900         95042.000      89.633
  77.8900         75219.000      79.869
  77.9900         60025.000      69.950
  78.0900         50344.000      64.769
  78.1900         44799.000      60.885
  78.2900         41686.000      58.258
  78.3900         39507.000      56.771
  78.4900         37849.000      56.205
  78.5900         36836.000      55.731
  78.6900         36167.000      54.608
  78.7900         36247.000      55.749
  78.8900         35582.000      54.626
  78.9900         35799.000      54.489
  79.0900         35836.000      54.277
  79.1900         35941.000      54.818
  79.2900         35851.000      54.194
  79.3900         35660.000      54.498
  79.4900         35250.000      54.406
  79.5900         35473.000      54.397
  79.6900         35041.000      54.102
  79.7900         34803.000      53.740
  79.8900         35013.000      54.176
  79.9900         34665.000      53.188
  80.0900         34457.000      52.650
  80.1900         34100.000      53.170
  80.2900         34668.000      53.526
  80.3900         34215.000      53.094
  80.4900         34640.000      53.954
  80.5900         34197.000      54.599
  80.6900         34280.000      52.915
  80.7900         33748.000      52.811
  80.8900         34137.000      53.104
  80.9900         34119.000      54.231
  81.0900         34254.000      52.962
  81.1900         34047.000      53.731
  81.2900         33972.000      53.526
  81.3900         33755.000      53.170
  81.4900         34325.000      53.320
  81.5900         33757.000      53.160
  81.6900         34168.000      52.773
  81.7900         33734.000      52.943
  81.8900         34055.000      52.802
  81.9900         34057.000      53.376
  82.0900         34095.000      53.544
  82.1900         34268.000      53.066
  82.2900         33995.000      54.037
  82.3900         33979.000      53.498
  82.4900         33571.000      52.307
  82.5900         33836.000      53.207
  82.6900         33798.000      52.764
  82.7900         34174.000      53.367
  82.8900         34185.000      53.413
  82.9900         34028.000      53.292
  83.0900         34111.000      54.461
  83.1900         34033.000      52.498
  83.2900         33859.000      53.047
  83.3900         33842.000      52.820
  83.4900         33562.000      53.019
  83.5900         33744.000      53.207
  83.6900         33518.000      52.574
  83.7900         33709.000      53.151
  83.8900         33729.000      52.896
  83.9900         33626.000      52.896
  84.0900         34074.000      52.802
  84.1900         33647.000      52.221
  84.2900         33617.000      52.764
  84.3900         33841.000      53.526
  84.4900         34248.000      53.198
  84.5900         34634.000      53.907
  84.6900         35307.000      54.305
  84.7900         36326.000      55.597
  84.8900         37251.000      55.353
  84.9900         38607.000      57.593
  85.0900         39427.000      56.719
  85.1900         40945.000      58.034
  85.2900         41860.000      58.703
  85.3900         43512.000      60.382
  85.4900         45257.000      60.885
  85.5900         45921.000      62.298
  85.6900         46153.000      61.660
  85.7900         45915.000      61.887
  85.8900         45159.000      61.147
  85.9900         43412.000      60.108
  86.0900         41938.000      58.771
  86.1900         40690.000      57.905
  86.2900         39500.000      57.654
  86.3900         38056.000      55.507
  86.4900         36334.000      56.080
  86.5900         35242.000      53.777
  86.6900         34454.000      53.113
  86.7900         34384.000      53.263
  86.8900         34080.000      53.094
  86.9900         33391.000      53.066
  87.0900         33501.000      53.085
  87.1900         33611.000      52.583
  87.2900         33422.000      52.650
  87.3900         33429.000      52.773
  87.4900         33197.000      52.163
  87.5900         33590.000      53.404
  87.6900         33514.000      52.297
  87.7900         33512.000      52.887
  87.8900         33657.000      52.574
  87.9900         33784.000      53.075
  88.0900         33814.000      53.526
  88.1900         34067.000      52.659
  88.2900         34201.000      53.722
  88.3900         35241.000      54.617
  88.4900         35696.000      55.435
  88.5900         35183.000      53.944
  88.6900         35218.000      54.964
  88.7900         35041.000      54.056
  88.8900         34195.000      53.675
  88.9900         34082.000      53.981
  89.0900         34186.000      53.207
  89.1900         33826.000      52.906
  89.2900         33450.000      53.141
  89.3900         33459.000      52.915
  89.4900         33640.000      52.820
  89.5900         33325.000      52.669
  89.6900         33436.000      53.301
  89.7900         33420.000      52.421
  89.8900         33142.000      52.593
  89.9900         33093.000      53.019
  90.0900         33433.000      53.656
  90.1900         33195.000      52.839
  90.2900         33220.000      53.075
  90.3900         33695.000      52.697
  90.4900         33853.000      53.554
  90.5900         33835.000      52.820
  90.6900         34028.000      53.638
  90.7900         34026.000      54.102
  90.8900         33429.000      51.488
  90.9900         33940.000      53.423
  91.0900         33692.000      53.160
  91.1900         33675.000      53.132
  91.2900         33596.000      52.716
  91.3900         33658.000      51.952
  91.4900         33177.000      52.240
  91.5900         33281.000      51.264
  91.6900         33240.000      53.075
  91.7900         33119.000      52.469
  91.8900         33078.000      53.000
  91.9900         33291.000      52.583
  92.0900         32884.000      53.395
  92.1900         32962.000      52.106
  92.2900         32704.000      51.875
  92.3900         33220.000      53.554
  92.4900         33415.000      52.678
  92.5900         33037.000      52.981
  92.6900         33001.000      53.179
  92.7900         33060.000      52.887
  92.8900         33024.000      51.585
  92.9900         32958.000      51.778
  93.0900         32976.000      53.104
  93.1900         33215.000      52.345
  93.2900         32709.000      51.942
  93.3900         33023.000      53.675
  93.4900         32778.000      51.478
  93.5900         32993.000      51.962
  93.6900         33137.000      51.981
  93.7900         32986.000      53.047
  93.8900         33213.000      52.612
  93.9900         32834.000      52.221
  94.0900         33222.000      53.066
  94.1900         32871.000      52.460
  94.2900         33387.000      52.943
  94.3900         33052.000      51.536
  94.4900         33151.000      53.188
  94.5900         32979.000      52.383
  94.6900         33233.000      51.488
  94.7900         33005.000      52.402
  94.8900         32864.000      51.575
  94.9900         33319.000      51.817
  95.0900         33150.000      52.364
  95.1900         33114.000      52.621
  95.2900         33198.000      51.108
  95.3900         32884.000      51.691
  95.4900         33268.000      52.545
  95.5900         33126.000      52.583
  95.6900         33323.000      52.820
  95.7900         33031.000      52.029
  95.8900         33743.000      53.544
  95.9900         33867.000      53.320
  96.0900         33860.000      53.935
  96.1900         34039.000      53.367
  96.2900         33710.000      53.470
  96.3900         33551.000      52.297
  96.4900         33630.000      53.684
  96.5900         33523.000      52.307
  96.6900         33825.000      52.678
  96.7900         33159.000      51.788
  96.8900         33311.000      53.263
  96.9900         33096.000      52.915
  97.0900         32985.000      51.952
  97.1900         33044.000      52.479
  97.2900         33184.000      53.404
  97.3900         32836.000      52.440
  97.4900         33126.000      51.962
  97.5900         32980.000      52.507
  97.6900         32673.000      52.707
  97.7900         32976.000      52.726
  97.8900         33051.000      52.858
  97.9900         32999.000      52.820
  98.0900         32798.000      52.431
  98.1900         32786.000      52.374
  98.2900         32827.000      52.726
  98.3900         33325.000      53.104
  98.4900         32970.000      52.402
  98.5900         33441.000      53.000
  98.6900         33397.000      53.123
  98.7900         33342.000      53.000
  98.8900         33718.000      53.563
  98.9900         33970.000      53.749
  99.0900         34308.000      53.488
  99.1900         34540.000      53.628
  99.2900         34747.000      53.991
  99.3900         35240.000      54.157
  99.4900         36045.000      55.009
  99.5900         36370.000      55.408
  99.6900         36589.000      54.681
  99.7900         37002.000      55.489
  99.8900         36560.000      55.281
  99.9900         36214.000      53.944
 100.0900         36357.000      54.470
 100.1900         35577.000      54.982
 100.2900         35286.000      54.129
 100.3900         34861.000      53.385
 100.4900         34845.000      54.461
 100.5900         34186.000      53.179
 100.6900         33677.000      52.345
 100.7900         33456.000      52.555
 100.8900         33057.000      52.029
 100.9900         33344.000      53.104
 101.0900         32872.000      52.240
 101.1900         33203.000      52.086
 101.2900         33218.000      53.254
 101.3900         33128.000      52.773
 101.4900         33012.000      51.884
 101.5900         33201.000      52.593
 101.6900         33417.000      52.716
 101.7900         33597.000      53.207
 101.8900         33162.000      53.404
 101.9900         33412.000      52.972
 102.0900         33274.000      52.830
 102.1900         33189.000      52.887
 102.2900         32949.000      52.115
 102.3900         32915.000      52.326
 102.4900         32971.000      52.726
 102.5900         32979.000      51.904
 102.6900         33161.000      52.269
 102.7900         32824.000      52.240
 102.8900         33051.000      51.585
 102.9900         33103.000      52.697
 103.0900         32559.000      52.134
 103.1900         32638.000      51.981
 103.2900         33034.000      52.981
 103.3900         32431.000      51.769
 103.4900         32942.000      52.240
 103.5900         32866.000      52.783
 103.6900         33137.000      51.788
 103.7900         32696.000      51.575
 103.8900         32836.000      52.402
 103.9900         32594.000      52.249
 104.0900         32783.000      51.215
 104.1900         32821.000      51.962
 104.2900         32454.000      51.633
 104.3900         32885.000      53.282
 104.4900         32769.000      52.612
 104.5900         32894.000      52.144
 104.6900         33135.000      52.830
 104.7900         33138.000      51.875
 104.8900         32888.000      52.355
 104.9900         32787.000      52.460
 105.0900         32907.000      51.759
 105.1900         33263.000      52.906
 105.2900         33020.000      52.507
 105.3900         33099.000      52.517
 105.4900         32847.000      52.943
 105.5900         33059.000      52.000
 105.6900         32921.000      51.585
 105.7900         33515.000      52.412
 105.8900         33500.000      53.432
 105.9900         33425.000      52.991
 106.0900         33479.000      52.574
 106.1900         33681.000      52.450
 106.2900         33977.000      52.839
 106.3900         34463.000      53.442
 106.4900         35316.000      53.796
 106.5900         36662.000      55.344
 106.6900         37863.000      55.911
 106.7900         39694.000      57.550
 106.8900         41794.000      59.506
 106.9900         44055.000      59.800
 107.0900         46899.000      61.790
 107.1900         49654.000      63.742
 107.2900         53181.000      66.970
 107.3900         56711.000      69.419
 107.4900         60519.000      71.302
 107.5900         64831.000      73.966
 107.6900         68740.000      75.346
 107.7900         72671.000      77.711
 107.8900         77395.000      80.914
 107.9900         81210.000      82.747
 108.0900         83870.000      83.397
 108.1900         85786.000      84.812
 108.2900         86495.000      85.035
 108.3900         87196.000      84.475
 108.4900         85467.000      84.451
 108.5900         84179.000      83.851
 108.6900         81070.000      81.419
 108.7900         77391.000      80.852
 108.8900         72187.000      78.090
 108.9900         67595.000      74.619
 109.0900         63874.000      73.566
 109.1900         61042.000      71.337
 109.2900         57285.000      68.884
 109.3900         53414.000      66.678
 109.4900         49315.000      63.230
 109.5900         45715.000      62.177
 109.6900         42119.000      58.822
 109.7900         40436.000      58.215
 109.8900         38363.000      56.134
 109.9900         36999.000      55.091
 110.0900         36083.000      54.259
 110.1900         34976.000      53.656
 110.2900         34372.000      52.697
 110.3900         34357.000      54.019
 110.4900         33779.000      52.536
 110.5900         33975.000      52.906
 110.6900         33080.000      53.442
 110.7900         33073.000      53.572
 110.8900         32754.000      52.773
 110.9900         33006.000      52.754
 111.0900         33005.000      53.057
 111.1900         32839.000      52.355
 111.2900         32541.000      50.912
 111.3900         32805.000      52.393
 111.4900         32726.000      52.278
 111.5900         32694.000      52.526
 111.6900         33203.000      52.498
 111.7900         32931.000      52.783
 111.8900         32542.000      52.631
 111.9900         32726.000      51.701
 112.0900         32836.000      52.345
 112.1900         32838.000      52.345
 112.2900         33143.000      52.849
 112.3900         33040.000      52.735
 112.4900         33235.000      52.593
 112.5900         33078.000      51.952
 112.6900         33014.000      52.278
 112.7900         32784.000      51.127
 112.8900         32832.000      52.000
 112.9900         33058.000      52.240
 113.0900         33262.000      52.355
 113.1900         32907.000      52.029
 113.2900         33486.000      52.564
 113.3900         33303.000      52.038
 113.4900         33203.000      53.301
 113.5900         33172.000      52.421
 113.6900         33138.000      51.875
 113.7900         33295.000      52.115
 113.8900         33088.000      52.498
 113.9900         32933.000      52.010
 114.0900         32789.000      52.067
 114.1900         32851.000      52.877
 114.2900         32794.000      51.643
 114.3900         32668.000      52.412
 114.4900         32596.000      52.498
 114.5900         32256.000      52.029
 114.6900         32762.000      52.830
 114.7900         32539.000      52.182
 114.8900         32479.000      51.990
 114.9900         32598.000      52.086
 115.0900         32406.000      51.029
 115.1900         32459.000      51.720
 115.2900         32331.000      51.913
 115.3900         32025.000      52.086
 115.4900         32122.000      51.595
 115.5900         32230.000      52.106
 115.6900         31946.000      52.364
 115.7900         32340.000      51.342
 115.8900         32195.000      51.361
 115.9900         32413.000      52.058
 116.0900         32359.000      51.798
 116.1900         32303.000      52.096
 116.2900         32334.000      51.952
 116.3900         32329.000      51.865
 116.4900         32087.000      51.361
 116.5900         32297.000      51.468
 116.6900         31895.000      52.488
 116.7900         32115.000      52.048
 116.8900         32214.000      51.498
 116.9900         32255.000      52.010
 117.0900         32188.000      52.297
 117.1900         32575.000      52.735
 117.2900         31699.000      51.711
 117.3900         32015.000      51.614
 117.4900         32279.000      52.144
 117.5900         32080.000      51.088
 117.6900         32121.000      51.585
 117.7900         32250.000      50.980
 117.8900         32000.000      51.293
 117.9900         31816.000      51.196
 118.0900         32127.000      52.211
 118.1900         32279.000      52.038
 118.2900         32253.000      52.297
 118.3900         32137.000      51.029
 118.4900         32238.000      51.856
 118.5900         32203.000      51.430
 118.6900         32300.000      51.798
 118.7900         31937.000      51.498
 118.8900         32285.000      51.846
 118.9900         32155.000      52.297
 119.0900         32307.000      51.575
 119.1900         32013.000      51.990
 119.2900         32631.000      51.807
 119.3900         32421.000      51.952
 119.4900         32388.000      51.575
 119.5900         32529.000      52.134
 119.6900         32224.000      52.182
 119.7900         32628.000      52.307
 119.8900         32585.000      51.836
 119.9900         32997.000      51.701
 120.0900         32759.000      51.672
 120.1900         32898.000      52.077
 120.2900         33104.000      51.836
 120.3900         32784.000      52.038
 120.4900         32911.000      52.029
 120.5900         32853.000      51.904
 120.6900         32932.000      52.469
 120.7900         33221.000      53.188
 120.8900         33683.000      53.047
 120.9900         34012.000      53.824
 121.0900         34688.000      53.898
 121.1900         34977.000      54.415
 121.2900         36146.000      54.626
 121.3900         37143.000      55.964
 121.4900         38945.000      56.815
 121.5900         41712.000      58.583
 121.6900         43780.000      61.139
 121.7900         47038.000      62.769
 121.8900         50432.000      64.761
 121.9900         53714.000      67.949
 122.0900         57641.000      69.094
 122.1900         62140.000      72.284
 122.2900         65869.000      74.074
 122.3900         71090.000      77.298
 122.4900         76508.000      80.343
 122.5900         82469.000      83.054
 122.6900         89405.000      86.845
 122.7900         95313.000      88.363
 122.8900        102310.000      92.326
 122.9900        108279.000      94.515
 123.0900        115315.000      97.934
 123.1900        122288.000     100.936
 123.2900        130677.000     104.264
 123.3900        137442.000     107.042
 123.4900        144468.000     109.055
 123.5900        150310.000     112.508
 123.6900        154338.000     113.428
 123.7900        156064.000     113.838
 123.8900        159114.000     114.416
 123.9900        159746.000     115.508
 124.0900        158991.000     115.490
 124.1900        156871.000     114.817
 124.2900        154475.000     113.071
 124.3900        148947.000     111.081
 124.4900        142317.000     108.789
 124.5900        134780.000     106.009
 124.6900        126082.000     102.587
 124.7900        116146.000      98.143
 124.8900        108569.000      94.541
 124.9900        103387.000      93.274
 125.0900         99007.000      91.104
 125.1900         93993.000      87.875
 125.2900         87800.000      85.866
 125.3900         81253.000      82.383
 125.4900         75088.000      78.810
 125.5900         68711.000      75.796
 125.6900         62804.000      71.882
 125.7900         57053.000      69.109
 125.8900         52819.000      66.227
 125.9900         49334.000      63.364
 126.0900         45947.000      62.153
 126.1900         43829.000      60.943
 126.2900         41214.000      58.352
 126.3900         40299.000      58.026
 126.4900         39280.000      56.462
 126.5900         37673.000      56.507
 126.6900         37207.000      56.178
 126.7900         36160.000      54.489
 126.8900         35748.000      54.955
 126.9900         35036.000      53.981
 127.0900         34724.000      53.385
 127.1900         34157.000      53.292
 127.2900         34060.000      53.376
 127.3900         33650.000      52.583
 127.4900         33032.000      52.820
 127.5900         32981.000      52.125
 127.6900         33046.000      52.735
 127.7900         32868.000      52.029
 127.8900         32762.000      51.730
 127.9900         32356.000      51.856
 128.0900         32747.000      51.575
 128.1900         32267.000      52.134
 128.2900         31949.000      51.245
 128.3900         31981.000      52.048
 128.4900         31982.000      51.740
 128.5900             4.000       1.000
 128.6900             6.000       1.000
