XYDATA SparksLave Co3O4-quenched_700_1.5K 
INTER        1       1       0     0.100000
TEMP       1.41490      1.64330      1.50000
! d1b Date 15-Nov-11 Time 05:38:40 Run 130021 130010>130021
! d1b Date 15-Nov-11 Time 05:38:40 Run 130021 130010>130021
! Monitor/counts, Counting time/sec:  1.08804e+007 1.08804e+007
   0.7900             4.000       1.000
   0.8900             7.000       1.000
   0.9900          1859.000      12.329
   1.0900          1889.000      12.450
   1.1900          1892.000      13.191
   1.2900          1763.000      12.124
   1.3900          1859.000      13.038
   1.4900          1836.000      11.874
   1.5900          1968.000      13.266
   1.6900          1973.000      13.638
   1.7900          2595.000      14.491
   1.8900          4072.000      18.248
   1.9900          6615.000      24.310
   2.0900          9016.000      27.911
   2.1900         11275.000      30.757
   2.2900         14288.000      34.496
   2.3900         18229.000      38.432
   2.4900         21985.000      42.332
   2.5900         25985.000      46.947
   2.6900         29827.000      50.010
   2.7900         32466.000      51.643
   2.8900         35400.000      54.286
   2.9900         38094.000      55.866
   3.0900         41131.000      58.677
   3.1900         43927.000      60.778
   3.2900         45695.000      62.225
   3.3900         45971.000      61.514
   3.4900         45342.000      61.555
   3.5900         44862.000      61.392
   3.6900         44111.000      60.712
   3.7900         43570.000      59.397
   3.8900         43099.000      59.220
   3.9900         43874.000      60.075
   4.0900         43359.000      60.266
   4.1900         43343.000      59.858
   4.2900         43370.000      59.858
   4.3900         43776.000      60.424
   4.4900         44381.000      61.425
   4.5900         45641.000      60.992
   4.6900         47009.000      63.348
   4.7900         48620.000      63.285
   4.8900         49861.000      65.406
   4.9900         51620.000      65.077
   5.0900         53082.000      66.656
   5.1900         54530.000      66.776
   5.2900         56496.000      69.354
   5.3900         57644.000      70.036
   5.4900         59220.000      70.420
   5.5900         60578.000      70.810
   5.6900         61113.000      70.972
   5.7900         62799.000      72.222
   5.8900         63907.000      72.925
   5.9900         65629.000      74.277
   6.0900         67037.000      73.770
   6.1900         67144.000      74.020
   6.2900         66754.000      74.169
   6.3900         67209.000      75.914
   6.4900         66676.000      74.539
   6.5900         65755.000      73.750
   6.6900         65961.000      74.719
   6.7900         64860.000      74.169
   6.8900         64755.000      73.205
   6.9900         64522.000      73.593
   7.0900         63821.000      73.226
   7.1900         62789.000      73.062
   7.2900         62206.000      71.896
   7.3900         61843.000      71.063
   7.4900         60910.000      71.498
   7.5900         60501.000      70.711
   7.6900         58813.000      69.556
   7.7900         58773.000      69.599
   7.8900         58109.000      70.000
   7.9900         56956.000      69.311
   8.0900         56356.000      68.462
   8.1900         55505.000      68.527
   8.2900         55129.000      67.838
   8.3900         53880.000      67.357
   8.4900         53462.000      67.104
   8.5900         52252.000      65.506
   8.6900         51562.000      65.841
   8.7900         50891.000      65.184
   8.8900         49791.000      64.281
   8.9900         48848.000      63.898
   9.0900         48142.000      63.048
   9.1900         47197.000      62.929
   9.2900         46649.000      62.722
   9.3900         45881.000      61.335
   9.4900         45271.000      61.579
   9.5900         44223.000      61.392
   9.6900         43435.000      58.830
   9.7900         42469.000      59.025
   9.8900         41346.000      58.455
   9.9900         40521.000      57.706
  10.0900         39869.000      57.324
  10.1900         39329.000      57.715
  10.2900         38476.000      56.622
  10.3900         38075.000      57.245
  10.4900         37465.000      56.604
  10.5900         36300.000      54.663
  10.6900         36031.000      55.082
  10.7900         35540.000      54.717
  10.8900         34802.000      53.591
  10.9900         34523.000      53.160
  11.0900         34484.000      53.423
  11.1900         34638.000      53.954
  11.2900         34234.000      53.684
  11.3900         33900.000      54.093
  11.4900         34443.000      54.231
  11.5900         33999.000      54.157
  11.6900         34313.000      54.203
  11.7900         34367.000      53.619
  11.8900         34177.000      52.735
  11.9900         34275.000      53.451
  12.0900         34419.000      52.924
  12.1900         33996.000      52.640
  12.2900         33796.000      53.132
  12.3900         33992.000      52.707
  12.4900         34026.000      54.369
  12.5900         34213.000      53.759
  12.6900         33622.000      52.230
  12.7900         34060.000      52.934
  12.8900         33978.000      52.678
  12.9900         34111.000      54.083
  13.0900         34232.000      52.962
  13.1900         33593.000      52.726
  13.2900         34056.000      52.707
  13.3900         33890.000      53.038
  13.4900         33875.000      53.628
  13.5900         34066.000      52.754
  13.6900         34161.000      53.442
  13.7900         33758.000      51.942
  13.8900         34162.000      53.292
  13.9900         33672.000      52.981
  14.0900         33898.000      53.395
  14.1900         33820.000      53.516
  14.2900         34006.000      52.469
  14.3900         33630.000      53.348
  14.4900         33915.000      53.254
  14.5900         33638.000      52.221
  14.6900         33985.000      53.357
  14.7900         34139.000      52.981
  14.8900         33955.000      52.602
  14.9900         33985.000      53.824
  15.0900         34003.000      53.535
  15.1900         34597.000      53.712
  15.2900         35656.000      55.036
  15.3900         36506.000      54.525
  15.4900         36472.000      55.182
  15.5900         35257.000      53.814
  15.6900         34606.000      53.057
  15.7900         34251.000      54.083
  15.8900         33868.000      52.460
  15.9900         34081.000      53.019
  16.0900         34375.000      53.731
  16.1900         33633.000      53.075
  16.2900         33796.000      52.943
  16.3900         33589.000      53.009
  16.4900         33749.000      53.526
  16.5900         34094.000      53.160
  16.6900         33893.000      52.811
  16.7900         33735.000      53.170
  16.8900         34058.000      53.703
  16.9900         33699.000      53.787
  17.0900         34030.000      53.423
  17.1900         33690.000      52.631
  17.2900         34243.000      53.535
  17.3900         33997.000      53.000
  17.4900         33893.000      52.943
  17.5900         34300.000      53.198
  17.6900         34833.000      53.451
  17.7900         35102.000      54.203
  17.8900         35449.000      54.129
  17.9900         35147.000      53.479
  18.0900         34665.000      54.139
  18.1900         34152.000      52.498
  18.2900         34219.000      54.009
  18.3900         34143.000      53.404
  18.4900         34186.000      52.820
  18.5900         34120.000      53.666
  18.6900         34398.000      53.619
  18.7900         34308.000      53.179
  18.8900         34637.000      53.647
  18.9900         34519.000      54.009
  19.0900         34129.000      53.703
  19.1900         34069.000      53.787
  19.2900         34200.000      53.516
  19.3900         34446.000      53.245
  19.4900         34173.000      53.544
  19.5900         34227.000      52.383
  19.6900         34472.000      53.198
  19.7900         34334.000      53.684
  19.8900         34348.000      53.254
  19.9900         34287.000      53.245
  20.0900         34234.000      52.526
  20.1900         34302.000      52.896
  20.2900         34297.000      54.065
  20.3900         34342.000      52.953
  20.4900         34582.000      53.703
  20.5900         34437.000      54.194
  20.6900         34926.000      54.342
  20.7900         34710.000      53.057
  20.8900         34231.000      52.192
  20.9900         34580.000      53.796
  21.0900         34762.000      53.479
  21.1900         34432.000      53.554
  21.2900         34358.000      52.991
  21.3900         34492.000      53.656
  21.4900         34424.000      53.563
  21.5900         34627.000      53.749
  21.6900         34544.000      53.907
  21.7900         34772.000      53.796
  21.8900         34500.000      53.787
  21.9900         34165.000      53.796
  22.0900         34313.000      53.226
  22.1900         34477.000      53.694
  22.2900         34472.000      53.432
  22.3900         34588.000      53.972
  22.4900         34345.000      52.792
  22.5900         34427.000      53.132
  22.6900         34691.000      53.226
  22.7900         34643.000      53.749
  22.8900         34521.000      54.763
  22.9900         34893.000      53.954
  23.0900         34359.000      53.796
  23.1900         34875.000      53.563
  23.2900         34471.000      53.526
  23.3900         34728.000      53.170
  23.4900         34680.000      54.553
  23.5900         34656.000      54.498
  23.6900         34512.000      53.944
  23.7900         34613.000      53.535
  23.8900         34978.000      53.432
  23.9900         35306.000      54.397
  24.0900         35436.000      53.694
  24.1900         34904.000      53.722
  24.2900         34937.000      53.385
  24.3900         34888.000      54.028
  24.4900         34583.000      53.572
  24.5900         34680.000      54.397
  24.6900         34384.000      53.572
  24.7900         34490.000      53.226
  24.8900         35275.000      54.268
  24.9900         34836.000      54.571
  25.0900         35383.000      54.387
  25.1900         35067.000      54.000
  25.2900         35172.000      54.369
  25.3900         35996.000      54.332
  25.4900         35640.000      53.972
  25.5900         35473.000      53.861
  25.6900         35193.000      53.619
  25.7900         35140.000      54.000
  25.8900         35104.000      54.745
  25.9900         35227.000      54.037
  26.0900         35272.000      54.000
  26.1900         35598.000      54.699
  26.2900         34894.000      53.666
  26.3900         35080.000      53.796
  26.4900         35161.000      53.712
  26.5900         35459.000      54.194
  26.6900         35566.000      54.259
  26.7900         35102.000      53.777
  26.8900         35238.000      54.635
  26.9900         35765.000      55.163
  27.0900         35471.000      54.452
  27.1900         35415.000      53.544
  27.2900         35343.000      54.056
  27.3900         35556.000      53.926
  27.4900         35496.000      55.036
  27.5900         35404.000      54.185
  27.6900         35656.000      54.617
  27.7900         35644.000      54.470
  27.8900         35493.000      54.626
  27.9900         35486.000      55.281
  28.0900         35642.000      55.444
  28.1900         35359.000      53.907
  28.2900         35591.000      53.759
  28.3900         35538.000      54.148
  28.4900         35708.000      54.781
  28.5900         35390.000      54.231
  28.6900         35727.000      54.231
  28.7900         35501.000      54.580
  28.8900         35676.000      54.991
  28.9900         35773.000      54.489
  29.0900         35903.000      54.397
  29.1900         35981.000      55.027
  29.2900         35596.000      54.461
  29.3900         35849.000      54.498
  29.4900         35991.000      54.608
  29.5900         36451.000      54.635
  29.6900         36652.000      54.507
  29.7900         36784.000      55.642
  29.8900         37866.000      56.134
  29.9900         37504.000      55.444
  30.0900         37828.000      56.054
  30.1900         36971.000      55.955
  30.2900         37036.000      55.417
  30.3900         37392.000      56.018
  30.4900         37761.000      56.639
  30.5900         38101.000      56.249
  30.6900         38749.000      56.303
  30.7900         40803.000      58.292
  30.8900         44707.000      60.671
  30.9900         55160.000      68.000
  31.0900         76387.000      79.630
  31.1900        105745.000      94.435
  31.2900        128249.000     103.320
  31.3900        126862.000     103.697
  31.4900        102885.000      92.423
  31.5900         72787.000      78.498
  31.6900         52771.000      66.038
  31.7900         43350.000      60.283
  31.8900         40253.000      57.611
  31.9900         38675.000      56.586
  32.0900         38136.000      56.542
  32.1900         37584.000      55.597
  32.2900         37108.000      56.116
  32.3900         36808.000      55.615
  32.4900         36678.000      54.882
  32.5900         36793.000      55.875
  32.6900         36601.000      55.399
  32.7900         36390.000      55.381
  32.8900         36457.000      54.608
  32.9900         36417.000      54.827
  33.0900         36012.000      54.580
  33.1900         36505.000      55.118
  33.2900         36154.000      54.681
  33.3900         36194.000      55.000
  33.4900         36029.000      53.814
  33.5900         36233.000      54.019
  33.6900         36146.000      54.562
  33.7900         36381.000      54.791
  33.8900         36650.000      54.845
  33.9900         36417.000      55.767
  34.0900         36770.000      55.100
  34.1900         37233.000      56.329
  34.2900         36784.000      55.723
  34.3900         36761.000      55.399
  34.4900         36452.000      55.236
  34.5900         36321.000      56.187
  34.6900         36072.000      55.000
  34.7900         36474.000      54.873
  34.8900         36317.000      54.672
  34.9900         36625.000      54.772
  35.0900         36266.000      55.344
  35.1900         36433.000      54.635
  35.2900         36649.000      54.470
  35.3900         36113.000      55.163
  35.4900         36361.000      54.653
  35.5900         37033.000      55.399
  35.6900         37394.000      55.281
  35.7900         38728.000      56.754
  35.8900         40284.000      58.301
  35.9900         45672.000      61.677
  36.0900         54690.000      66.985
  36.1900         68355.000      76.105
  36.2900         81177.000      81.425
  36.3900         84401.000      83.457
  36.4900         75059.000      79.555
  36.5900         61153.000      72.478
  36.6900         49364.000      64.140
  36.7900         42145.000      58.609
  36.8900         39355.000      57.515
  36.9900         37846.000      55.723
  37.0900         36995.000      54.882
  37.1900         37039.000      55.290
  37.2900         36099.000      54.599
  37.3900         36530.000      54.964
  37.4900         35924.000      54.470
  37.5900         36311.000      55.100
  37.6900         35974.000      55.145
  37.7900         35853.000      54.653
  37.8900         36045.000      54.231
  37.9900         36002.000      53.991
  38.0900         35568.000      54.194
  38.1900         35778.000      54.690
  38.2900         35681.000      54.277
  38.3900         35366.000      53.694
  38.4900         35393.000      53.861
  38.5900         35186.000      53.917
  38.6900         35373.000      54.176
  38.7900         35234.000      54.900
  38.8900         35415.000      55.018
  38.9900         34968.000      54.507
  39.0900         35300.000      53.777
  39.1900         35400.000      55.064
  39.2900         35474.000      54.286
  39.3900         35686.000      54.626
  39.4900         35555.000      53.694
  39.5900         35720.000      55.200
  39.6900         36593.000      54.964
  39.7900         36368.000      54.791
  39.8900         36272.000      54.754
  39.9900         35801.000      54.717
  40.0900         35735.000      55.344
  40.1900         35358.000      53.759
  40.2900         35652.000      54.387
  40.3900         35654.000      54.461
  40.4900         35264.000      53.628
  40.5900         35328.000      54.653
  40.6900         35300.000      54.699
  40.7900         35515.000      53.796
  40.8900         35656.000      54.406
  40.9900         35292.000      53.749
  41.0900         35255.000      54.222
  41.1900         34936.000      53.833
  41.2900         35431.000      54.708
  41.3900         34763.000      53.926
  41.4900         35114.000      54.222
  41.5900         34947.000      53.852
  41.6900         35039.000      54.222
  41.7900         34779.000      54.037
  41.8900         35051.000      53.944
  41.9900         35165.000      54.213
  42.0900         35175.000      53.861
  42.1900         35072.000      53.254
  42.2900         34948.000      53.861
  42.3900         35100.000      54.369
  42.4900         35014.000      54.424
  42.5900         34554.000      53.151
  42.6900         34577.000      53.954
  42.7900         34630.000      53.703
  42.8900         35144.000      53.898
  42.9900         34978.000      54.083
  43.0900         34735.000      54.074
  43.1900         35166.000      53.460
  43.2900         34389.000      52.991
  43.3900         34832.000      54.653
  43.4900         35041.000      53.432
  43.5900         35075.000      54.635
  43.6900         35013.000      54.249
  43.7900         34850.000      53.600
  43.8900         34837.000      52.906
  43.9900         35153.000      53.619
  44.0900         35078.000      54.772
  44.1900         34841.000      53.385
  44.2900         34432.000      52.383
  44.3900         34922.000      53.329
  44.4900         35018.000      53.787
  44.5900         34693.000      54.166
  44.6900         34711.000      54.065
  44.7900         34885.000      53.870
  44.8900         35292.000      54.873
  44.9900         34843.000      53.879
  45.0900         34897.000      53.198
  45.1900         34564.000      53.944
  45.2900         34879.000      53.572
  45.3900         34672.000      54.000
  45.4900         34444.000      53.516
  45.5900         34683.000      54.534
  45.6900         34520.000      53.085
  45.7900         34827.000      53.160
  45.8900         35087.000      53.703
  45.9900         34696.000      55.209
  46.0900         34480.000      53.861
  46.1900         34966.000      53.787
  46.2900         34886.000      54.900
  46.3900         35100.000      54.222
  46.4900         34970.000      53.666
  46.5900         35103.000      54.240
  46.6900         34560.000      53.404
  46.7900         34552.000      53.619
  46.8900         34538.000      53.329
  46.9900         34703.000      53.787
  47.0900         34846.000      53.852
  47.1900         34755.000      53.442
  47.2900         34746.000      54.240
  47.3900         34758.000      54.194
  47.4900         35031.000      54.653
  47.5900         35461.000      54.397
  47.6900         37178.000      55.964
  47.7900         38494.000      57.758
  47.8900         38576.000      56.036
  47.9900         37679.000      55.669
  48.0900         36005.000      54.507
  48.1900         34892.000      54.406
  48.2900         34868.000      53.301
  48.3900         34852.000      52.697
  48.4900         34841.000      53.591
  48.5900         34830.000      53.245
  48.6900         34792.000      53.628
  48.7900         34590.000      53.954
  48.8900         34273.000      53.301
  48.9900         35045.000      54.332
  49.0900         34823.000      53.385
  49.1900         34972.000      53.460
  49.2900         34861.000      53.731
  49.3900         35096.000      53.413
  49.4900         34688.000      53.563
  49.5900         35172.000      54.562
  49.6900         35048.000      53.572
  49.7900         34768.000      53.805
  49.8900         34920.000      53.954
  49.9900         35070.000      53.516
  50.0900         34621.000      53.563
  50.1900         34833.000      54.360
  50.2900         34930.000      54.479
  50.3900         35386.000      54.093
  50.4900         34802.000      53.132
  50.5900         34898.000      53.879
  50.6900         34578.000      53.273
  50.7900         34990.000      53.413
  50.8900         34594.000      52.820
  50.9900         34973.000      54.745
  51.0900         34814.000      55.000
  51.1900         34479.000      53.085
  51.2900         34984.000      54.717
  51.3900         34881.000      53.009
  51.4900         35116.000      53.712
  51.5900         35423.000      54.305
  51.6900         34933.000      54.231
  51.7900         35779.000      54.708
  51.8900         37341.000      54.708
  51.9900         39408.000      58.060
  52.0900         43264.000      59.034
  52.1900         48113.000      64.117
  52.2900         54771.000      67.580
  52.3900         57024.000      68.051
  52.4900         55379.000      68.257
  52.5900         51113.000      65.985
  52.6900         44736.000      61.041
  52.7900         39857.000      57.879
  52.8900         37047.000      55.118
  52.9900         36121.000      55.723
  53.0900         35462.000      54.387
  53.1900         35230.000      53.619
  53.2900         35288.000      54.525
  53.3900         35311.000      54.452
  53.4900         34911.000      54.369
  53.5900         35463.000      54.148
  53.6900         35098.000      54.342
  53.7900         34916.000      53.898
  53.8900         35263.000      53.085
  53.9900         34664.000      53.123
  54.0900         34777.000      53.367
  54.1900         34908.000      54.690
  54.2900         34724.000      54.185
  54.3900         34875.000      53.675
  54.4900         35214.000      53.833
  54.5900         34905.000      53.442
  54.6900         34867.000      53.879
  54.7900         35485.000      55.200
  54.8900         35338.000      53.498
  54.9900         35771.000      54.863
  55.0900         35669.000      54.498
  55.1900         35244.000      53.094
  55.2900         35613.000      55.191
  55.3900         35070.000      54.249
  55.4900         35210.000      54.083
  55.5900         35326.000      53.526
  55.6900         35407.000      54.452
  55.7900         34940.000      53.694
  55.8900         35539.000      53.740
  55.9900         35287.000      53.395
  56.0900         35316.000      53.554
  56.1900         34994.000      54.342
  56.2900         34741.000      53.498
  56.3900         35090.000      53.787
  56.4900         34857.000      53.898
  56.5900         34883.000      54.120
  56.6900         35010.000      53.656
  56.7900         34641.000      53.516
  56.8900         34801.000      53.852
  56.9900         35110.000      54.489
  57.0900         35222.000      54.754
  57.1900         35057.000      54.240
  57.2900         35007.000      52.906
  57.3900         35021.000      53.526
  57.4900         35005.000      53.870
  57.5900         35079.000      54.763
  57.6900         35108.000      54.009
  57.7900         35173.000      54.470
  57.8900         35090.000      54.617
  57.9900         35260.000      53.582
  58.0900         35181.000      54.166
  58.1900         34887.000      53.610
  58.2900         34803.000      53.310
  58.3900         35056.000      54.415
  58.4900         35183.000      54.736
  58.5900         34914.000      53.935
  58.6900         34752.000      54.213
  58.7900         35414.000      54.672
  58.8900         35003.000      54.157
  58.9900         34775.000      52.811
  59.0900         35345.000      54.827
  59.1900         35119.000      54.507
  59.2900         35483.000      54.918
  59.3900         35075.000      53.777
  59.4900         35456.000      54.772
  59.5900         35408.000      53.376
  59.6900         35400.000      54.203
  59.7900         35313.000      54.102
  59.8900         35230.000      54.663
  59.9900         35445.000      54.589
  60.0900         35233.000      53.703
  60.1900         35158.000      53.870
  60.2900         35637.000      54.397
  60.3900         35406.000      54.148
  60.4900         35598.000      54.203
  60.5900         35220.000      54.028
  60.6900         35551.000      54.900
  60.7900         35550.000      54.166
  60.8900         35774.000      54.360
  60.9900         35802.000      53.972
  61.0900         35857.000      54.323
  61.1900         35888.000      54.727
  61.2900         36816.000      54.973
  61.3900         36916.000      55.642
  61.4900         37142.000      55.758
  61.5900         38541.000      56.657
  61.6900         39977.000      58.241
  61.7900         43514.000      60.424
  61.8900         47485.000      62.905
  61.9900         51973.000      65.238
  62.0900         58164.000      69.964
  62.1900         65028.000      73.614
  62.2900         69020.000      75.478
  62.3900         69655.000      75.842
  62.4900         66921.000      75.027
  62.5900         62518.000      72.705
  62.6900         56262.000      67.963
  62.7900         49343.000      63.372
  62.8900         43994.000      60.910
  62.9900         40549.000      57.585
  63.0900         38475.000      56.400
  63.1900         37591.000      55.875
  63.2900         36380.000      54.909
  63.3900         36546.000      55.444
  63.4900         36215.000      55.516
  63.5900         36597.000      54.580
  63.6900         36265.000      54.854
  63.7900         36566.000      54.836
  63.8900         35905.000      54.991
  63.9900         36761.000      55.821
  64.0900         36759.000      55.749
  64.1900         37230.000      55.678
  64.2900         37325.000      55.480
  64.3900         38618.000      56.542
  64.4900         39477.000      57.446
  64.5900         41994.000      59.506
  64.6900         47943.000      63.490
  64.7900         58813.000      69.174
  64.8900         74198.000      78.262
  64.9900         94967.000      88.159
  65.0900        117403.000      98.869
  65.1900        143381.000     108.936
  65.2900        171861.000     119.854
  65.3900        189666.000     125.276
  65.4900        190703.000     126.720
  65.5900        180407.000     122.020
  65.6900        162128.000     116.095
  65.7900        137287.000     106.981
  65.8900        108624.000      95.000
  65.9900         81296.000      82.565
  66.0900         60964.000      71.505
  66.1900         49764.000      63.867
  66.2900         44449.000      61.311
  66.3900         40867.000      58.506
  66.4900         38632.000      57.175
  66.5900         37224.000      56.107
  66.6900         37023.000      55.714
  66.7900         36202.000      55.480
  66.8900         36209.000      54.046
  66.9900         35779.000      55.127
  67.0900         35643.000      54.791
  67.1900         35525.000      54.019
  67.2900         35352.000      54.360
  67.3900         35197.000      53.479
  67.4900         35584.000      54.717
  67.5900         35933.000      55.018
  67.6900         36203.000      54.818
  67.7900         36480.000      55.055
  67.8900         36570.000      55.687
  67.9900         35584.000      54.845
  68.0900         35855.000      54.745
  68.1900         34998.000      54.571
  68.2900         34625.000      53.656
  68.3900         34662.000      53.675
  68.4900         34191.000      54.387
  68.5900         34788.000      53.526
  68.6900         34471.000      54.323
  68.7900         34364.000      53.833
  68.8900         34089.000      54.120
  68.9900         34036.000      53.842
  69.0900         34324.000      53.104
  69.1900         34141.000      52.906
  69.2900         34130.000      53.842
  69.3900         34048.000      52.896
  69.4900         34151.000      53.572
  69.5900         34169.000      53.376
  69.6900         34157.000      52.830
  69.7900         33955.000      53.935
  69.8900         33993.000      53.666
  69.9900         34001.000      53.413
  70.0900         34058.000      53.094
  70.1900         33867.000      52.764
  70.2900         34068.000      53.526
  70.3900         33804.000      52.650
  70.4900         33845.000      53.000
  70.5900         33896.000      53.038
  70.6900         33949.000      52.764
  70.7900         33628.000      52.307
  70.8900         33716.000      53.104
  70.9900         33665.000      52.783
  71.0900         33921.000      53.861
  71.1900         34148.000      53.917
  71.2900         34691.000      53.638
  71.3900         34516.000      53.610
  71.4900         35352.000      53.917
  71.5900         35856.000      53.787
  71.6900         36210.000      55.064
  71.7900         36338.000      54.955
  71.8900         37156.000      54.534
  71.9900         37464.000      55.821
  72.0900         37743.000      55.821
  72.1900         38032.000      56.400
  72.2900         37851.000      57.114
  72.3900         37547.000      56.533
  72.4900         37317.000      55.344
  72.5900         36851.000      55.696
  72.6900         36585.000      55.172
  72.7900         36166.000      54.745
  72.8900         35643.000      54.534
  72.9900         35126.000      53.935
  73.0900         34929.000      54.553
  73.1900         34711.000      54.259
  73.2900         34247.000      53.170
  73.3900         34433.000      52.650
  73.4900         34281.000      53.151
  73.5900         35018.000      53.870
  73.6900         34905.000      53.123
  73.7900         34496.000      53.432
  73.8900         34508.000      53.385
  73.9900         34316.000      53.972
  74.0900         34028.000      53.160
  74.1900         33348.000      51.595
  74.2900         33427.000      52.688
  74.3900         33734.000      52.488
  74.4900         33143.000      52.240
  74.5900         33996.000      53.207
  74.6900         33701.000      53.516
  74.7900         33631.000      53.572
  74.8900         33589.000      52.526
  74.9900         33807.000      52.783
  75.0900         33678.000      52.981
  75.1900         33973.000      52.943
  75.2900         34002.000      53.610
  75.3900         33788.000      51.836
  75.4900         34188.000      53.179
  75.5900         34373.000      53.787
  75.6900         34673.000      53.367
  75.7900         34879.000      54.037
  75.8900         35642.000      54.580
  75.9900         35949.000      54.672
  76.0900         37098.000      55.471
  76.1900         39230.000      57.009
  76.2900         43743.000      59.708
  76.3900         50041.000      64.730
  76.4900         59878.000      70.767
  76.5900         71886.000      77.679
  76.6900         86583.000      85.557
  76.7900        103642.000      93.413
  76.8900        120303.000      99.775
  76.9900        140910.000     108.568
  77.0900        161346.000     116.404
  77.1900        173793.000     120.254
  77.2900        175523.000     120.917
  77.3900        170591.000     120.004
  77.4900        158915.000     114.970
  77.5900        142064.000     109.234
  77.6900        124774.000     101.769
  77.7900        105486.000      93.440
  77.8900         84623.000      84.202
  77.9900         66981.000      75.060
  78.0900         53824.000      67.022
  78.1900         46224.000      62.402
  78.2900         42011.000      59.716
  78.3900         38943.000      56.258
  78.4900         37369.000      56.692
  78.5900         36020.000      54.157
  78.6900         35270.000      53.814
  78.7900         35277.000      53.019
  78.8900         34585.000      53.292
  78.9900         34363.000      53.038
  79.0900         34081.000      53.535
  79.1900         34118.000      53.357
  79.2900         34377.000      54.470
  79.3900         34343.000      52.745
  79.4900         34277.000      53.759
  79.5900         34419.000      53.516
  79.6900         34225.000      53.413
  79.7900         33884.000      53.104
  79.8900         33758.000      52.934
  79.9900         33561.000      52.383
  80.0900         33614.000      52.240
  80.1900         33126.000      52.421
  80.2900         33562.000      52.402
  80.3900         32795.000      53.160
  80.4900         33107.000      52.650
  80.5900         32944.000      52.440
  80.6900         33126.000      52.839
  80.7900         32848.000      51.274
  80.8900         32976.000      52.479
  80.9900         32872.000      52.593
  81.0900         32859.000      52.106
  81.1900         33059.000      53.610
  81.2900         32751.000      52.316
  81.3900         33098.000      53.019
  81.4900         32513.000      51.691
  81.5900         32699.000      52.278
  81.6900         32647.000      51.157
  81.7900         32428.000      51.875
  81.8900         32843.000      52.583
  81.9900         32395.000      52.058
  82.0900         32510.000      52.067
  82.1900         32638.000      52.125
  82.2900         32587.000      52.678
  82.3900         32454.000      51.836
  82.4900         32722.000      51.856
  82.5900         32441.000      52.096
  82.6900         32436.000      52.067
  82.7900         32750.000      52.269
  82.8900         32504.000      52.125
  82.9900         32653.000      52.479
  83.0900         32644.000      51.039
  83.1900         32312.000      52.479
  83.2900         32526.000      52.048
  83.3900         32610.000      51.720
  83.4900         33057.000      52.440
  83.5900         32461.000      52.716
  83.6900         32359.000      52.192
  83.7900         32427.000      52.364
  83.8900         32684.000      52.058
  83.9900         32489.000      51.740
  84.0900         32526.000      52.555
  84.1900         32704.000      53.057
  84.2900         32656.000      52.326
  84.3900         32784.000      51.556
  84.4900         33213.000      52.460
  84.5900         33415.000      52.640
  84.6900         34236.000      52.640
  84.7900         35588.000      54.791
  84.8900         36347.000      55.435
  84.9900         38038.000      56.196
  85.0900         39772.000      57.061
  85.1900         40902.000      58.026
  85.2900         42888.000      60.671
  85.3900         44898.000      60.158
  85.4900         47001.000      62.546
  85.5900         48931.000      62.984
  85.6900         49770.000      63.914
  85.7900         49372.000      64.397
  85.8900         48949.000      63.859
  85.9900         47671.000      62.048
  86.0900         46135.000      60.959
  86.1900         43958.000      59.867
  86.2900         42400.000      60.125
  86.3900         40346.000      57.966
  86.4900         37852.000      55.973
  86.5900         36115.000      55.073
  86.6900         35308.000      53.926
  86.7900         34168.000      53.814
  86.8900         33693.000      53.479
  86.9900         32845.000      52.545
  87.0900         32993.000      52.154
  87.1900         33224.000      51.439
  87.2900         32940.000      53.470
  87.3900         33532.000      52.896
  87.4900         33514.000      52.269
  87.5900         33690.000      52.659
  87.6900         34620.000      54.323
  87.7900         35362.000      54.479
  87.8900         35753.000      54.314
  87.9900         36535.000      55.714
  88.0900         37472.000      56.098
  88.1900         38305.000      57.096
  88.2900         39855.000      57.254
  88.3900         41113.000      58.361
  88.4900         41887.000      58.949
  88.5900         42081.000      59.967
  88.6900         41966.000      59.733
  88.7900         41093.000      58.609
  88.8900         40694.000      58.327
  88.9900         39473.000      57.663
  89.0900         37995.000      55.973
  89.1900         36921.000      55.082
  89.2900         35864.000      54.516
  89.3900         34610.000      53.898
  89.4900         33852.000      52.402
  89.5900         33114.000      52.991
  89.6900         32738.000      52.669
  89.7900         32715.000      52.269
  89.8900         32611.000      52.915
  89.9900         32672.000      51.894
  90.0900         32561.000      51.186
  90.1900         32516.000      51.730
  90.2900         32124.000      51.342
  90.3900         32446.000      53.000
  90.4900         32859.000      52.259
  90.5900         32895.000      52.555
  90.6900         32736.000      52.297
  90.7900         32712.000      52.096
  90.8900         32880.000      52.650
  90.9900         32628.000      52.678
  91.0900         32729.000      52.326
  91.1900         32542.000      52.383
  91.2900         32677.000      51.981
  91.3900         32717.000      52.077
  91.4900         32228.000      52.602
  91.5900         32376.000      51.682
  91.6900         31872.000      51.488
  91.7900         32032.000      51.884
  91.8900         32250.000      51.323
  91.9900         32032.000      52.067
  92.0900         31905.000      51.488
  92.1900         31801.000      51.381
  92.2900         32321.000      52.316
  92.3900         31949.000      52.355
  92.4900         32147.000      52.545
  92.5900         31834.000      50.675
  92.6900         31371.000      51.127
  92.7900         31968.000      51.069
  92.8900         31833.000      50.616
  92.9900         32016.000      51.059
  93.0900         31744.000      51.653
  93.1900         31917.000      51.827
  93.2900         31931.000      51.720
  93.3900         31882.000      50.902
  93.4900         31862.000      51.420
  93.5900         32060.000      51.730
  93.6900         32225.000      51.186
  93.7900         31887.000      52.802
  93.8900         31799.000      50.980
  93.9900         32231.000      51.157
  94.0900         32254.000      51.817
  94.1900         31816.000      52.249
  94.2900         31928.000      51.798
  94.3900         31852.000      51.759
  94.4900         31909.000      52.383
  94.5900         31768.000      50.951
  94.6900         32073.000      51.546
  94.7900         31670.000      51.313
  94.8900         31743.000      50.616
  94.9900         31906.000      51.691
  95.0900         32274.000      52.564
  95.1900         32462.000      52.297
  95.2900         31817.000      51.215
  95.3900         31993.000      51.923
  95.4900         31760.000      51.449
  95.5900         31903.000      51.913
  95.6900         32146.000      50.120
  95.7900         31934.000      52.144
  95.8900         32354.000      52.106
  95.9900         32257.000      51.498
  96.0900         32737.000      51.749
  96.1900         32869.000      51.894
  96.2900         32852.000      52.077
  96.3900         32620.000      52.019
  96.4900         32783.000      52.460
  96.5900         32691.000      53.610
  96.6900         32607.000      51.942
  96.7900         32181.000      51.614
  96.8900         32215.000      51.439
  96.9900         32241.000      51.205
  97.0900         31933.000      52.202
  97.1900         32052.000      51.846
  97.2900         31910.000      51.575
  97.3900         31439.000      51.166
  97.4900         31915.000      52.125
  97.5900         31509.000      51.196
  97.6900         31891.000      50.980
  97.7900         31708.000      50.980
  97.8900         31765.000      51.088
  97.9900         31812.000      52.106
  98.0900         31859.000      51.740
  98.1900         31793.000      52.163
  98.2900         31891.000      51.439
  98.3900         31907.000      51.624
  98.4900         31873.000      51.517
  98.5900         32717.000      52.621
  98.6900         32295.000      52.383
  98.7900         32457.000      52.096
  98.8900         32349.000      52.230
  98.9900         32707.000      51.633
  99.0900         32660.000      51.981
  99.1900         33081.000      52.849
  99.2900         33166.000      51.069
  99.3900         33982.000      53.404
  99.4900         34616.000      54.222
  99.5900         34760.000      53.160
  99.6900         35367.000      53.498
  99.7900         35602.000      53.917
  99.8900         35668.000      54.534
  99.9900         35643.000      54.231
 100.0900         35574.000      55.091
 100.1900         35206.000      53.526
 100.2900         34794.000      54.074
 100.3900         34362.000      53.814
 100.4900         33822.000      53.619
 100.5900         33200.000      52.887
 100.6900         32938.000      51.391
 100.7900         32685.000      52.058
 100.8900         32019.000      51.711
 100.9900         32303.000      52.259
 101.0900         32024.000      51.420
 101.1900         31998.000      52.115
 101.2900         31831.000      51.186
 101.3900         32184.000      51.157
 101.4900         31755.000      51.585
 101.5900         31916.000      50.941
 101.6900         32016.000      51.691
 101.7900         31818.000      50.636
 101.8900         32176.000      51.827
 101.9900         32027.000      51.527
 102.0900         32245.000      51.361
 102.1900         32216.000      51.556
 102.2900         32042.000      51.293
 102.3900         31997.000      51.127
 102.4900         31734.000      50.922
 102.5900         31844.000      51.381
 102.6900         31854.000      51.039
 102.7900         31936.000      50.646
 102.8900         31842.000      51.127
 102.9900         31615.000      51.069
 103.0900         31837.000      51.098
 103.1900         31667.000      51.157
 103.2900         31633.000      51.391
 103.3900         31476.000      50.070
 103.4900         31625.000      51.720
 103.5900         31714.000      51.595
 103.6900         31596.000      51.118
 103.7900         32006.000      51.293
 103.8900         31763.000      50.833
 103.9900         31860.000      51.817
 104.0900         31612.000      52.288
 104.1900         32041.000      52.038
 104.2900         31679.000      51.000
 104.3900         31914.000      50.715
 104.4900         31681.000      51.069
 104.5900         31618.000      50.229
 104.6900         31508.000      51.682
 104.7900         31985.000      52.192
 104.8900         31782.000      51.186
 104.9900         31805.000      51.488
 105.0900         31704.000      50.547
 105.1900         31806.000      51.186
 105.2900         31420.000      51.049
 105.3900         32026.000      51.662
 105.4900         32029.000      52.479
 105.5900         32158.000      51.556
 105.6900         31931.000      52.297
 105.7900         32386.000      52.326
 105.8900         32254.000      51.865
 105.9900         32312.000      51.769
 106.0900         32146.000      52.536
 106.1900         32396.000      52.364
 106.2900         32721.000      52.450
 106.3900         33063.000      52.335
 106.4900         33604.000      52.421
 106.5900         34341.000      54.176
 106.6900         35806.000      54.754
 106.7900         37146.000      55.830
 106.8900         39370.000      57.061
 106.9900         41221.000      58.472
 107.0900         43627.000      61.066
 107.1900         46722.000      62.000
 107.2900         48981.000      64.312
 107.3900         53196.000      65.917
 107.4900         56946.000      69.477
 107.5900         61721.000      71.344
 107.6900         65926.000      74.673
 107.7900         69681.000      75.796
 107.8900         73996.000      78.083
 107.9900         78869.000      81.480
 108.0900         82519.000      82.571
 108.1900         86273.000      84.232
 108.2900         88220.000      86.931
 108.3900         88593.000      85.382
 108.4900         88889.000      86.122
 108.5900         87417.000      85.709
 108.6900         86048.000      86.180
 108.7900         82528.000      82.958
 108.8900         78010.000      80.561
 108.9900         73061.000      78.473
 109.0900         68154.000      74.471
 109.1900         64166.000      72.664
 109.2900         61075.000      71.176
 109.3900         57217.000      69.764
 109.4900         53580.000      67.290
 109.5900         49449.000      64.257
 109.6900         45334.000      61.041
 109.7900         42253.000      58.949
 109.8900         39395.000      57.193
 109.9900         37469.000      55.326
 110.0900         36271.000      55.136
 110.1900         34996.000      53.740
 110.2900         33971.000      53.094
 110.3900         33488.000      53.057
 110.4900         33619.000      52.431
 110.5900         32824.000      52.393
 110.6900         32738.000      52.163
 110.7900         32143.000      51.807
 110.8900         32331.000      51.682
 110.9900         31612.000      51.166
 111.0900         32096.000      51.595
 111.1900         32051.000      51.303
 111.2900         31808.000      52.393
 111.3900         32056.000      51.147
 111.4900         31782.000      51.157
 111.5900         31559.000      51.759
 111.6900         31359.000      51.313
 111.7900         31436.000      51.536
 111.8900         31418.000      51.361
 111.9900         31503.000      51.459
 112.0900         31706.000      50.784
 112.1900         32042.000      52.077
 112.2900         31906.000      51.575
 112.3900         31818.000      51.196
 112.4900         31829.000      51.672
 112.5900         31810.000      50.140
 112.6900         32340.000      52.154
 112.7900         32419.000      52.297
 112.8900         32036.000      51.662
 112.9900         32144.000      52.115
 113.0900         32220.000      52.067
 113.1900         32424.000      52.125
 113.2900         32219.000      52.364
 113.3900         32443.000      53.094
 113.4900         32177.000      52.953
 113.5900         32219.000      51.459
 113.6900         31895.000      51.332
 113.7900         32030.000      51.595
 113.8900         32419.000      52.240
 113.9900         32205.000      51.147
 114.0900         32223.000      52.431
 114.1900         31905.000      51.284
 114.2900         32343.000      52.259
 114.3900         32210.000      52.526
 114.4900         31487.000      51.449
 114.5900         31962.000      51.682
 114.6900         31459.000      50.379
 114.7900         31958.000      51.884
 114.8900         31516.000      51.595
 114.9900         31292.000      51.711
 115.0900         31895.000      50.488
 115.1900         31314.000      51.565
 115.2900         31154.000      50.853
 115.3900         31039.000      50.980
 115.4900         31201.000      50.636
 115.5900         30971.000      51.000
 115.6900         30903.000      50.813
 115.7900         31158.000      50.339
 115.8900         31182.000      51.029
 115.9900         31280.000      51.186
 116.0900         30955.000      51.235
 116.1900         31406.000      51.400
 116.2900         31327.000      50.398
 116.3900         31354.000      51.585
 116.4900         31170.000      50.329
 116.5900         31031.000      51.933
 116.6900         30647.000      50.902
 116.7900         31036.000      50.527
 116.8900         30970.000      50.764
 116.9900         30957.000      51.020
 117.0900         31172.000      51.371
 117.1900         30926.000      50.537
 117.2900         30751.000      50.537
 117.3900         30854.000      50.010
 117.4900         31178.000      50.626
 117.5900         30996.000      51.381
 117.6900         31081.000      50.961
 117.7900         31150.000      51.069
 117.8900         31236.000      50.438
 117.9900         31331.000      51.118
 118.0900         31209.000      50.990
 118.1900         31010.000      50.872
 118.2900         31141.000      50.990
 118.3900         31093.000      50.931
 118.4900         31319.000      51.691
 118.5900         31202.000      50.379
 118.6900         31257.000      50.020
 118.7900         31170.000      51.498
 118.8900         31000.000      51.643
 118.9900         30896.000      50.961
 119.0900         31295.000      51.127
 119.1900         31466.000      51.293
 119.2900         31298.000      51.293
 119.3900         31128.000      50.902
 119.4900         31587.000      51.488
 119.5900         31406.000      50.527
 119.6900         31172.000      50.902
 119.7900         31210.000      51.078
 119.8900         31473.000      51.449
 119.9900         31337.000      51.186
 120.0900         31362.000      49.860
 120.1900         31206.000      51.332
 120.2900         31410.000      51.633
 120.3900         31691.000      51.711
 120.4900         31222.000      51.962
 120.5900         31635.000      52.048
 120.6900         31998.000      50.961
 120.7900         32048.000      51.332
 120.8900         32183.000      51.420
 120.9900         32306.000      52.000
 121.0900         32684.000      51.352
 121.1900         33032.000      52.498
 121.2900         33569.000      52.924
 121.3900         34848.000      53.833
 121.4900         35764.000      54.166
 121.5900         37182.000      55.489
 121.6900         39742.000      57.637
 121.7900         42079.000      59.321
 121.8900         45452.000      61.976
 121.9900         48669.000      63.750
 122.0900         52134.000      66.310
 122.1900         56138.000      68.096
 122.2900         60543.000      71.910
 122.3900         64145.000      73.157
 122.4900         68920.000      75.100
 122.5900         74911.000      78.307
 122.6900         80556.000      82.110
 122.7900         87945.000      85.610
 122.8900         93967.000      87.224
 122.9900        100264.000      91.755
 123.0900        106385.000      94.138
 123.1900        113932.000      97.903
 123.2900        121160.000     100.354
 123.3900        128386.000     103.039
 123.4900        136004.000     106.593
 123.5900        143475.000     109.750
 123.6900        149074.000     111.781
 123.7900        153364.000     114.804
 123.8900        157866.000     114.446
 123.9900        158712.000     114.398
 124.0900        160379.000     115.750
 124.1900        159282.000     115.581
 124.2900        158823.000     115.261
 124.3900        155059.000     114.180
 124.4900        151753.000     112.978
 124.5900        146655.000     109.900
 124.6900        138343.000     107.671
 124.7900        127750.000     103.619
 124.8900        120178.000      99.398
 124.9900        111320.000      96.078
 125.0900        105210.000      93.622
 125.1900        100464.000      91.673
 125.2900         95335.000      89.364
 125.3900         90369.000      86.868
 125.4900         83955.000      83.875
 125.5900         76842.000      80.623
 125.6900         69914.000      76.276
 125.7900         64684.000      73.116
 125.8900         58080.000      69.029
 125.9900         53831.000      67.261
 126.0900         49955.000      64.784
 126.1900         46741.000      62.137
 126.2900         43484.000      59.783
 126.3900         41294.000      59.548
 126.4900         39211.000      56.604
 126.5900         38326.000      56.542
 126.6900         37272.000      55.624
 126.7900         36370.000      54.507
 126.8900         35719.000      54.305
 126.9900         34627.000      53.160
 127.0900         34204.000      53.160
 127.1900         33634.000      52.953
 127.2900         33126.000      52.697
 127.3900         32741.000      53.132
 127.4900         32892.000      52.707
 127.5900         32170.000      52.125
 127.6900         31933.000      51.391
 127.7900         31655.000      51.049
 127.8900         31791.000      51.643
 127.9900         31362.000      51.166
 128.0900         31679.000      52.048
 128.1900         30955.000      51.059
 128.2900         31213.000      51.400
 128.3900         31126.000      50.892
 128.4900         31011.000      50.922
 128.5900             3.000       1.000
 128.6900            11.000       1.000
